raw_ppg
1898.8311508494003
2191.7103055462003
2491.7543506367
2795.79230041722
3099.24971514769
3395.97577702789
3678.19013301861
3936.58790522453
4160.63045488875
4339.03122065801
4460.42208410779
4514.15891639949
4491.19818757883
4384.95407985634
4192.0331522344
3912.74775123093
3551.3340356325502
3115.84093176313
2617.70141197066
2071.03739109358
1491.7779515881602
896.6849211325793
302.3806650161103
-275.5373000093527
-823.2285694578507
-1329.1472052646898
-1784.3702168620598
-2182.72805323286
-2520.76533055038
-2797.56863632671
-3014.49870909039
-3174.86029832579
-3283.53572078721
-3346.5967062039
-3370.90072810766
-3363.67967911278
-3332.13662262428
-3283.07241987917
-3222.56374439832
-3155.7096866050997
-3086.45952725352
-3017.52762286718
-2950.39315205115
-2885.37676977398
-2821.7825269596
-2758.0898193428097
-2692.17874319479
-2621.57482934839
-2543.70118420362
-2456.12136078353
-2356.7486220059
-2243.99747606459
-2116.86337722051
-1974.9286716710496
-1818.3023679096898
-1647.5078440361997
-1463.3352003120997
-1266.6741594173197
-1058.3443027327296
-838.9449973709577
-608.7518972909677
-367.6820838155847
-115.33680694895071
148.8812470381923
425.58467615840027
715.1616625437953
1017.4928246917403
1331.6466670109303
1655.5833971069303
1985.8979642238603
2317.63415402281
2644.20481283701
2957.45047533025
3247.85641030534
3504.93127677659
3717.73457642265
3875.5279547385303
3968.51399069638
3988.6087763566
3930.17353728784
3790.6165275747203
3570.77950906128
3275.0483744101102
2911.16824727926
2489.78352247365
2023.7545839421102
1527.3277978261603
1015.2513445604403
501.9284899329583
0.6827566659996984
-476.8145600969957
-920.9291102845917
-1324.2588625501096
-1681.6584245076797
-1990.1261752609298
-2248.5992759576397
-2457.70373647881
-2619.49664416709
-2737.21939118169
-2815.06223607356
-2857.9290089154897
-2871.18920153113
-2860.41156128472
-2831.08418499097
-2788.33660419897
-2736.6863013890197
-2679.83146753154
-2620.5043031699
-2560.39268967611
-2500.13532778132
-2439.39151026938
-2376.97971228298
-2311.07231294551
-2239.42945106681
-2159.65118843367
-2069.42323031592
-1966.7339767888298
-1850.0497457598096
-1718.4393314865397
-1571.6361748228696
-1410.0268960264998
-1234.5649735692698
-1046.6232390737398
-847.8088053757507
-639.7642391759467
-423.9752018545227
-201.6033700312257
26.638966010849586
260.5622128646693
500.5141848680203
747.3278470516653
1002.1929742259243
1266.4486106770103
1541.3017600530402
1827.4864557009803
2124.88877872289
2432.17523484964
2746.46863448712
3063.11639438597
3375.59310875347
3675.57114266228
3953.17921286723
4197.45320952209
4396.9664665469
4540.60438731751
4618.42094314243
4622.48906254105
4547.64510468209
4392.03804305303
4157.41947836782
3849.13795467638
3475.83239727146
3048.85986704213
2581.5296812310403
2088.23493258379
1583.5736209566703
1081.5398297882002
594.8450427032013
134.4070583216873
-290.9774507317777
-674.7814826080297
-1012.7422752999397
-1302.7414514247198
-1544.6115419035898
-1739.8978304012296
-1891.5904741964098
-2003.8350406683796
-2081.6296309353497
-2130.5174041969
-2156.28128408786
-2164.64578523991
-2160.99169453059
-2150.09270802565
-2135.8884801424997
-2121.31285477154
-2108.1958445258997
-2097.25235513687
-2088.16004221332
-2079.7154317295
-2070.04678247621
-2056.85777693636
-2037.6774937140397
-2010.0966806904796
-1971.9746415646896
-1921.6028842976698
-1857.8130716648297
-1780.0208925599998
-1688.2055957738096
-1582.8359868565497
-1464.7615785691396
-1335.0875960081896
-1195.0483573375197
-1045.8888266903098
-888.7588264939737
-724.6212438115397
-554.1762061692267
-377.8043515838427
-195.5329737218377
-7.031454167653711
188.3539522177173
391.5158460269323
603.4468820192703
825.0483757338853
1056.8943586427704
1298.9644938199003
1550.3649856377804
1809.0631192603803
2071.66725477855
2333.28796357835
2587.51521574773
2826.53971912484
3041.43529090193
3222.60517536463
3360.37776583429
3445.71558916189
3470.97561412436
3430.63489205364
3321.88749573351
3145.0318815055402
2903.59395168496
2604.1661246506
2255.98284767864
1870.2858922398202
1459.5525293974104
1036.6703373688104
614.1437008642863
203.4056709926723
-185.7124845008617
-545.3267082029207
-869.6577732431347
-1155.0201250076498
-1399.6774164441497
-1603.6091220777896
-1768.2329081812697
-1896.1193194725197
-1990.7228043635298
-2056.14017305481
-2096.89458539626
-2117.73416506199
-2123.43492675404
-2118.60360595386
-2107.48085292532
-2093.75077826622
-2080.3698417350597
-2069.43176743592
-2062.08318296165
-2058.5004786435297
-2057.93460063898
-2058.82438584977
-2058.96964989469
-2055.74738974069
-2046.3509807449598
-2028.0305640739298
-1998.3117652789297
-1955.1735985351197
-1897.1750182783696
-1823.5249239619898
-1734.0917735016496
-1629.3549313476096
-1510.3093591776797
-1378.3398314257897
-1235.0802280976998
-1082.2706953308198
-921.6209281594117
-754.6832405329307
-582.7364334031078
-406.6822474581697
-226.9614918731767
-43.50282817354811
144.2823143875233
337.4496890665333
537.4120124175442
745.7651105496943
964.0506673176343
1193.4647471768003
1434.5317254304002
1686.7705786067104
1948.3850907902104
2216.01494142287
2484.5891710729
2747.31971230242
2995.8601959410003
3220.64122728434
3411.3781206458902
3557.7254918961203
3650.02683880635
3680.08496970227
3641.86801379463
3532.06877404346
3350.4523962538
3099.95486973476
2786.52595800914
2418.73891692275
2007.2138286634904
1563.9209146022904
1101.4400842729303
632.2494502565582
168.1031560889213
-280.4575386842097
-704.4382727898717
-1096.5761935553296
-1451.4028109464998
-1765.2208945681298
-2036.0256141798297
-2263.38677685253
-2448.29466344988
-2592.9640274233698
-2700.59365414052
-2775.0894235608
-2820.76860711328
-2842.06486310686
-2843.25027526021
-2828.19104023119
-2800.15384021821
-2761.67405846996
-2714.4899102486597
-2659.54391084661
-2597.05141769704
-2526.63095752023
-2447.48266524169
-2358.59172511163
-2258.92833795107
-2147.61941302072
-2024.0773315152296
-1888.0805175029097
-1739.8059732197196
-1579.8176108648697
-1409.0194586886298
-1228.5875330903898
-1039.8928292567298
-844.4216197035537
-643.6948707606238
-439.1888495259017
-232.2594873514997
-24.06947684626451
184.4858241215143
392.8523756436293
600.8801736418033
808.8584973553963
1017.5089113295403
1227.9251556670404
1441.4536051446203
1659.5130029102604
1883.3581939631604
2113.80072512928
2350.90876563269
2593.71790900425
2839.98957632436
3086.05120505002
3326.74574040454
3555.51311010153
3764.61966321251
3945.53756939323
4089.4576384431202
4187.8999350623
4233.36963673885
4219.99453041845
4144.0763686146
4004.49022836751
3802.87619137517
3543.59115117674
3233.42537190015
2881.12526070783
2496.7862715637502
2091.1875967332103
1675.1380906429804
1258.8923140580303
851.6788507333023
461.3634896749283
94.25170542238398
-244.9793877188287
-553.2406982183587
-828.9113557878507
-1071.6701603126896
-1282.3037294144597
-1462.5064367345396
-1614.6773467806297
-1741.7159756305198
-1846.8208822163397
-1933.2967231140597
-2004.3753669220098
-2063.05697568384
-2111.97633241036
-2153.29732359205
-2188.6361326807
-2219.0132402702498
-2244.83680712246
-2265.92331288752
-2281.56060382339
-2290.61232034281
-2291.65536597142
-2283.13776990632
-2263.54255810425
-2231.54232107014
-2186.12938350879
-2126.7104243539698
-2053.16175748106
-1965.8453580319797
-1865.5841082513898
-1753.5964667389496
-1631.3984317300096
-1500.6855741362897
-1363.2069892802497
-1220.6402074827097
-1074.4727210567296
-925.8944628349217
-775.7088550957587
-624.2722522913167
-471.4677320395747
-316.7145175117877
-159.0147194210417
2.9590853804896184
170.7338865322083
345.8654836633233
529.7304278660733
723.2882590823093
926.8295892173213
1139.7342858660404
1360.2686535814703
1585.4478384290203
1810.9835910762904
2031.3348015292902
2239.87704607528
2429.1994823242103
2591.52003670436
2719.18972535972
2805.2419441021702
2843.93342604223
2831.21993087991
2765.11470986331
2645.89036926299
2476.10072300804
2260.41916907079
2005.3137446371902
1718.5989368899602
1408.9155431242202
1085.1943853342202
756.1570583429383
429.8954004079413
113.55560900994529
-186.8631465790687
-466.6017402534647
-722.1444540474297
-951.1577445925917
-1152.3899207449697
-1325.5522496515896
-1471.1945290746696
-1590.5823972425396
-1685.5780412064296
-1758.5192677127397
-1812.0889992871996
-1849.1703724197498
-1872.6895311306796
-1885.4556916319398
-1890.0107870167597
-1888.4982290096198
-1882.5580294094398
-1873.2562601282098
-1861.0566156599498
-1845.8376074940697
-1826.9536835209797
-1803.3354329122496
-1773.6211320565696
-1736.3083165031396
-1689.9116629198697
-1633.1139323228097
-1564.8992239098898
-1484.6574620993597
-1392.2469654206297
-1288.0068348809898
-1172.7222762789497
-1047.5541389575696
-913.9449832521917
-773.5104928961867
-627.9211061315417
-478.7784847203367
-327.4944193130287
-175.1810627451257
-22.559247544546114
130.1110273773143
283.0738006394643
437.0865862856153
593.3858644196603
753.6007257430813
919.6132544871602
1093.3705565855703
1276.6567033061203
1470.8345159903004
1676.5714878008303
1893.5724435418504
2120.34862917477
2354.05429471237
2590.41747894538
2823.78287474402
3047.27381160203
3253.07163370103
3432.8053926339203
3578.03818357713
3680.82230304637
3734.27589996534
3733.12133173675
3674.12705025195
3556.40477341815
3381.52762245388
3153.45546664289
2878.2779607542802
2563.8051579404
2219.04938770442
1853.6528964782203
1477.3194387805104
1099.3020390137303
727.9862289607423
370.5904040987553
32.98664209263099
-280.3693210287707
-566.4209174211417
-823.4332503192707
-1050.8789830109397
-1249.3034535765098
-1420.1788104057098
-1565.7546681867598
-1688.9083378390496
-1792.9882356590197
-1881.6388567886697
-1958.6019058779598
-2027.4993408971598
-2091.61128897533
-2153.66460639138
-2215.65019116357
-2278.6891917939597
-2342.96658306194
-2407.7437253878197
-2471.45117093675
-2531.85140157963
-2586.25102128449
-2631.73722597516
-2665.41558214611
-2684.6303985121
-2687.15074054549
-2671.3074323623
-2636.07347840764
-2581.08903496937
-2506.6373888028997
-2413.5805367142098
-2303.26289990229
-2177.39066979897
-2037.8956964538297
-1886.7961251355098
-1726.0664738899798
-1557.5254208449396
-1382.7421904037096
-1202.9579496361498
-1019.0211641994497
-831.3410945155528
-639.8659758630897
-444.0920663056847
-243.1082336913447
-35.67861709830981
179.6362329086463
404.3212420357503
639.7150975855762
886.7894734751703
1145.9048934875802
1416.5544613263603
1697.1177489260103
1984.6568299341702
2274.78871201041
2561.66374903829
2838.07079595476
3095.67903160883
3325.41522995251
3517.96423514062
3664.36574238306
3756.6588777374
3788.50543922453
3755.7174587815603
3656.62826093583
3492.26749274233
3266.32091010479
2984.87857130131
2656.00328432353
2289.1748652527
1894.6757424635202
1482.9830569655903
1064.2252776395803
647.7441173389612
241.7785441581753
-146.7317960663007
-512.2366749623557
-850.5774038525147
-1158.9261559819197
-1435.6924456572297
-1680.4194757156597
-1893.6747717864198
-2076.92470258766
-2232.3797283869
-2362.80381379143
-2471.29243288489
-2561.0336471426
-2635.07105404486
-2696.08642230493
-2746.21810277519
-2786.93187010548
-2818.9601750124198
-2842.31714853854
-2856.3822395213
-2860.03560509205
-2851.82755652864
-2830.16630316495
-2793.50739626845
-2740.5269671371598
-2670.26339324556
-2582.21733979981
-2476.4040342095
-2353.35477926835
-2214.07189246691
-2059.95128236787
-1892.6912621348697
-1714.1998373749898
-1526.5005755532097
-1331.6298946123698
-1131.5218937989198
-927.8859909450707
-722.0886525325897
-515.0506614922817
-307.1707305473157
-98.28763435975772
112.30835709100329
325.8110218394423
543.7844215569243
768.0060567559093
1000.2724302362633
1242.1732288972403
1494.8441442707403
1758.7126349291002
2033.2531846279903
2316.76998289827
2606.22678827021
2897.1440358108302
3183.5763255838
3458.1754794110702
3712.36593843165
3936.69990557277
4121.44553380797
4257.3747323626
4336.62061057495
4353.43549309397
4304.72863469051
4190.34266812641
4013.06833495835
3778.4140455361103
3494.1711012854003
3169.8352913534
2815.95204959056
2443.45123268321
2063.03062942289
1684.6325524008403
1317.0384941677903
967.5895453225893
642.0276200993912
344.4424830842323
77.30230226701688
-158.4543270181597
-363.27895746667673
-538.8322717749197
-687.7639924883507
-813.4578605892357
-919.7513445543287
-1010.6465532107597
-1090.0329014311897
-1161.4411531976098
-1227.8439445123597
-1291.5133172445896
-1353.9415546993796
-1415.8256101654597
-1477.1090371374196
-1537.0710997018398
-1594.4507657007698
-1647.5941209565096
-1694.6167049814496
-1733.5731436946096
-1762.6234970396497
-1780.1814970513497
-1785.0276295640897
-1776.3742510842196
-1753.8815232585298
-1717.6334642335496
-1668.0851412693696
-1605.9884970201797
-1532.3031698920897
-1448.1004635529796
-1354.4678099770897
-1252.4170976983696
-1142.7993496428696
-1026.2315849866698
-903.0438146768618
-773.2529472755747
-636.5675648872497
-492.4251137278907
-340.0638872843957
-178.6343530305307
-7.351413776155012
174.3180218908243
366.4433578157013
568.4108508921573
778.7191766051543
994.8153264487493
1212.9930578998803
1428.3733801936603
1634.9859736823703
1825.9667718065502
1993.8776199613503
2131.13972829035
2230.55196712537
2285.8419871034203
2292.18639292889
2246.64132012057
2148.43783038301
1999.1116001810203
1802.4548573053203
1564.2995194274304
1292.1606825703202
994.7844816780923
681.6490029806713
362.4621215890683
46.69124647908209
-256.8498135651307
-540.3417342798667
-797.2228066059647
-1022.3773659645897
-1212.2586059082398
-1364.9543090497898
-1480.1967759499496
-1559.3109266706697
-1605.0918146908498
-1621.6095226433797
-1613.9667891696197
-1588.0765469868297
-1550.5230621139797
-1508.4561782368996
-1469.3318111859396
-1440.3548163980797
-1427.6854467872897
-1435.6000293641698
-1465.7875682224696
-1516.9648843686198
-1585.0002449402898
-1663.5741551316296
-1745.1440495579498
-1821.9074109118396
-1886.5946421792596
-1933.0489388494898
-1956.5917142966996
-1954.1880381388596
-1924.4427838124398
-1867.4662915124297
-1784.6474294642796
-1678.3700792015097
-1551.7072374994298
-1408.1213177672896
-1251.1916923916397
-1084.3836567527796
-910.8656957837707
-733.3741304734457
-554.1193907998627
-374.7279163253527
-196.2145729431847
-18.981321997983013
157.1576279602503
332.9174840916063
509.4434911644603
688.1673487370113
870.6218847945973
1058.2223236288403
1252.0287544952403
1452.5081643156102
1659.3150005514503
1871.1093965118303
2085.43375681814
2298.66945708894
2506.09212336593
2702.03641039074
2880.17189371209
3033.8794174721
3156.70139357962
3242.82521080883
3287.55068200235
3287.69049444025
3241.85745746268
3150.60547791204
3016.40972036002
2843.48937936726
2637.49247877256
2405.07814591758
2153.44582002982
1889.8671041109903
1621.2708522148002
1353.9170383473204
1093.1761544965802
843.4144603192763
607.9732702803573
389.2222784544933
188.6618205648873
7.046331417724079
-155.4970509714527
-299.3728139475437
-425.4502767372467
-535.0191834639977
-629.7516894351627
-711.6518074906957
-782.9783727323787
-846.1377610009017
-903.5540480640017
-957.5324281683597
-1010.1326624934597
-1063.0645682924796
-1117.6113610035698
-1174.5802425121897
-1234.2742177539396
-1296.4789169821197
-1360.4624146096796
-1424.9885178525296
-1488.3454700631196
-1548.3954340119396
-1602.6493956942597
-1648.3655242259697
-1682.6667113563497
-1702.6787945265396
-1705.6972028179896
-1689.3907771287097
-1652.0478664202496
-1592.8645157029896
-1512.2578835384597
-1412.1241695373797
-1295.8665338891697
-1168.0435782785296
-1033.7024501768897
-897.6423189266557
-763.8186209357847
-634.9801740796627
-512.5504446513607
-396.6801469172127
-286.3653289787457
-179.5857105458797
-73.46940412944741
35.48770321042129
151.0902777059333
276.9731954436833
416.0610813745173
570.0688968765443
739.1197924454813
921.5159604891503
1113.6794827039603
1310.2684996673104
1504.4633350552904
1688.4057355424802
1853.7590653730103
1992.3398621669303
2096.75940377312
2161.01201512562
2180.95111211022
2154.60336275608
2082.28806441491
1966.5311684586602
1811.7884264245104
1624.0168703254703
1410.1527415119704
1177.5621029585302
933.5264206560613
684.8131331699893
437.3659532612693
196.1312231928423
-34.98676829987971
-253.07142180254368
-456.0820173541367
-642.7224772930447
-812.3170765953577
-964.7085433879807
-1100.1838937892196
-1219.4225034959097
-1323.4540560654898
-1413.6136995856598
-1491.4834920163696
-1558.8114037998596
-1617.4057944282997
-1669.0132657278898
-1715.1936811332498
-1757.2061880414096
-1795.9193193029198
-1831.7576435962296
-1864.6933318121796
-1894.2833664564398
-1919.7456251710596
-1940.0623402284298
-1954.0985126985297
-1960.7247807427398
-1958.9354720733597
-1947.9509864597196
-1927.2918811813397
-1896.8145998674697
-1856.7062317624998
-1807.4436077345897
-1749.7271566996396
-1684.4018936920997
-1612.3761119995497
-1534.5439400822697
-1451.7138699377797
-1364.5425579377998
-1273.4711812465598
-1178.6612986452096
-1079.9307954382698
-976.6975853204897
-867.9432126531797
-752.2063720256087
-627.6125413505367
-491.94685062251773
-342.7810081487557
-177.6639435827967
5.6233127898398285
208.76193679988629
432.5653391642733
676.6581995041503
939.1987053400474
1216.6784898069302
1503.8334553603504
1793.6902898008402
2077.75960259036
2346.37596456346
2589.17919304757
2795.71944067757
2956.1499726645
3061.96131912269
3106.7095513550603
3086.67536032419
3001.35176053239
2853.63592204233
2649.64007923016
2398.13442361852
2109.74039428707
1796.0416681968302
1468.7505513054302
1139.0044195135904
816.8197264355023
510.7067007057623
227.4364181159863
-28.054160894211915
-252.6396572870537
-444.8916852165987
-604.8980997727447
-734.0372534865877
-834.7215271746447
-910.1197918053697
-963.8674782157807
-999.7752484346497
-1021.5520423632897
-1032.5614476060398
-1035.6290389485896
-1032.9138330780297
-1025.8501266237097
-1015.1566091305797
-1000.9009454694097
-982.6058760714087
-959.3869030417846
-930.1124235624097
-893.5709903742197
-848.6267768223076
-794.3494039754097
-730.1115257248697
-655.6517485223746
-571.1025275342766
-476.9834220987647
-374.1615553956637
-263.7844992097497
-147.1932230814607
-25.823328485894912
98.89674260644848
225.64223491996628
353.2777973900633
480.9307297747843
608.0517259695393
734.4601236869953
860.3661042840333
986.3618548188473
1113.3767541162003
1242.5924774437804
1375.3136063215204
1512.7938032917202
1656.0262418520604
1805.5151456065203
1961.0506774158603
2121.51028151004
2284.70696599562
2447.30403472987
2604.81623036455
2751.71286937366
2881.62933821273
2987.6848109737602
3062.8955262396703
3100.65864331693
3095.26255179902
3042.36655023923
2939.39454007417
2785.80034605978
2583.17910367247
2335.21531745117
2047.4716320001803
1727.0355673594104
1382.0579954408804
1021.2335031929703
653.2800720313983
286.4702422143293
-71.74598828097841
-415.0004827953357
-738.1408247156647
-1037.2514721713696
-1309.5903618775797
-1553.4763561372797
-1768.1615088160197
-1953.7111247949197
-2110.89869262439
-2241.11149209759
-2346.2593272539298
-2428.68025274314
-2491.04147433448
-2536.23811676592
-2567.29231225153
-2587.24909974522
-2599.0597209050898
-2605.44496127737
-2608.74084785988
-2610.73538400459
-2612.50145369357
-2614.23962050052
-2615.19396462405
-2613.73159116938
-2607.59199429691
-2594.20795187991
-2571.00779248008
-2535.66514230449
-2486.2838271329
-2421.5192322745397
-2340.6471100263097
-2243.58186755583
-2130.8421843350197
-2003.4717687947998
-1862.9286194900196
-1710.9527369577997
-1549.4199944981096
-1380.1913369395097
-1204.9680629718298
-1025.1630990711196
-841.7942912135817
-655.4025215491376
-465.9998181636557
-273.0592644824347
-75.56216031788502
127.88607466268728
338.8698746007003
558.9180046757783
789.2173166483512
1030.3076246559704
1281.7838295617003
1542.0382280818703
1808.0776770264704
2075.44424928427
2338.25990744739
2589.40791542529
2820.85285859695
3024.08665162867
3190.67258513463
3312.8447950416403
3384.10703670242
3399.76580526254
3357.33513810506
3256.76528642331
3100.46964490147
2893.14962151015
2641.44239589712
2353.437484127
2038.1212532168304
1704.8109915478103
1362.6315217198803
1020.0739671347803
684.6636880851013
362.7497951556523
59.41019687174669
-221.5486140363187
-477.5224148996087
-706.9960162893667
-909.4131346645627
-1085.0539828918497
-1234.9300476872797
-1360.6876232164398
-1464.5060418763396
-1548.9809292777297
-1616.9876393962497
-1671.5242072219096
-1715.5376693095898
-1751.7430763772397
-1782.4513763264497
-1809.4248654762198
-1833.7736936381798
-1855.8999137305098
-1875.4918864119797
-1891.5704316977296
-1902.5863342573498
-1906.5664347872696
-1901.3019238939896
-1884.5641300486398
-1854.3232660698197
-1808.9441644180497
-1747.3413408513898
-1669.0856946188296
-1574.4600869361298
-1464.4623969156096
-1340.7590286383697
-1205.5964182077198
-1061.6750721897697
-911.9865907320967
-759.6169355125857
-607.5227300665867
-458.2883004393867
-313.8737704564517
-175.3687843090157
-42.77187575055791
85.17574015442608
211.0641436707113
338.7570381283763
473.1716365160413
619.8794876677723
784.5271903891653
972.0921390171313
1186.0257046433103
1427.4284844698702
1694.4800747751103
1982.2854718011904
2283.1657477137
2587.32459862741
2883.72310699462
3160.93755779737
3407.87086444074
3614.33201749226
3771.5354435436
3872.5301056431
3912.53183595151
3889.12578630637
3802.32751384559
3654.52290079279
3450.30676120325
3196.21079839801
2900.30958058036
2571.72824209359
2220.10448692179
1855.0619815009502
1485.7443181647802
1120.4446818823803
766.3470325632073
429.3762679422383
114.14340003553028
-176.0331547446877
-439.0514351817417
-673.9183157692758
-880.6322561134917
-1060.0693211096998
-1213.8737916125297
-1344.3472678493097
-1454.3270820041398
-1547.0450625112996
-1625.9621680808098
-1694.5821640548797
-1756.2546477660496
-1813.9815742645696
-1870.2429075045998
-1926.8573044106297
-1984.8912715548397
-2044.6253549089
-2105.58140697921
-2166.60949320765
-2226.0244854061298
-2281.77622224904
-2331.63752466816
-2373.394768005
-2405.02120160885
-2424.81126740142
-2431.46186353762
-2424.09785450357
-2402.24610898085
-2365.76851894489
-2314.7742946652097
-2249.53710825098
-2170.4342273470997
-2077.90872150627
-1972.4454520616698
-1854.5507064365497
-1724.7297055087497
-1583.4616074258997
-1431.1736168418897
-1268.2128795401698
-1094.8132754149397
-911.0592749893457
-716.8562094925397
-511.9201097465857
-295.8015026214167
-67.95623582236672
172.1297961542093
424.7650622149813
689.8398446552633
966.5998105659503
1253.4323536479203
1547.6899847581503
1845.5701644901003
2142.06550279697
2430.9960187914103
2705.13918544762
2956.47568309327
3176.55881825067
3356.99507428387
3489.99981712547
3568.97272467809
3589.02985663668
3547.43436516433
3443.87765729367
3280.57511527439
3062.1602695076
2795.38662625223
2488.66997343374
2151.5235014874
1793.9498832427603
1425.8525851411703
1056.5165621417602
694.1936336976593
345.8111162034743
16.80731778239839
-288.9073534726977
-568.8683736015407
-821.8806830070007
-1047.8012591311697
-1247.3316913148096
-1421.8434943366697
-1573.2338962690196
-1703.7969971398898
-1816.0925432169597
-1912.8041739684297
-1996.5925406748097
-2069.95210190467
-2135.07540887405
-2193.72811470415
-2247.14501847066
-2295.96269121831
-2340.20087102122
-2379.2969362509198
-2412.18969131917
-2437.44170887529
-2453.3878080752797
-2458.3000639369798
-2450.55854568247
-2428.81091868627
-2392.10136222709
-2339.95438804494
-2272.40915031963
-2190.00828156872
-2093.74885712092
-1985.0038341153697
-1865.4211876794197
-1736.8053437803997
-1600.9850017434296
-1459.6740491491496
-1314.3346422198597
-1166.0529521049898
-1015.4393856215397
-862.5632701073457
-706.9262090937337
-547.4737600515897
-382.6449845155667
-210.4625552829967
-28.669291355164713
165.0845509557833
373.0058891914993
596.8856415350963
837.8042063959942
1095.8380751952402
1369.7954307723103
1657.0102257754902
1953.2218894851503
2252.56551362044
2547.69462045067
2830.04892942117
3090.2637168603
3318.70193085324
3506.0738032454
3644.08907488038
3726.07299270243
3747.47867632042
3706.24325972435
3602.9554035165
3440.82282612662
3225.44879160288
2964.44433370037
2666.91712098515
2342.88840915046
2002.6951179141304
1656.4305058666903
1313.4645465143703
982.0697671553593
669.1620975695283
380.1501151184213
118.87687894079329
-112.36055061469472
-312.7258844900197
-482.7057111172497
-623.9326076457307
-738.9786310604217
-831.1233100175917
-904.1007739545357
-961.8360850903257
-1008.1856172792498
-1046.6995198930297
-1080.4250985757296
-1111.7645755534697
-1142.3913551790297
-1173.2222755907396
-1204.4406263131698
-1235.5623251924496
-1265.5346037023096
-1292.8569323852298
-1315.7182521867196
-1332.1449524397096
-1340.1481430581798
-1337.8572251737896
-1323.6357514413696
-1296.1863849430397
-1254.6537061919996
-1198.7227924092797
-1128.6892458428797
-1045.4613703120397
-950.4750616938567
-845.5422744177927
-732.6697970042027
-613.8731779672297
-490.9992744027357
-365.5678843399927
-238.64233431031371
-110.73803707230071
18.22414821385479
148.9143275794143
282.5350164861843
420.7074617814033
565.3085766383913
718.2649331451863
881.3091997243863
1055.7080596355804
1241.9787342499403
1439.6195164768303
1646.8836807228504
1860.6255990027603
2076.24526211969
2287.75156168062
2487.95605213733
2668.80005626376
2821.8053452586
2938.61968942178
3011.61094569261
3034.45324991924
3002.64469603408
2913.89861855447
2768.36321954598
2568.6440966394803
2319.6275037097203
2028.1264356171403
1702.3933700966502
1351.5597192175103
985.0671579912353
612.1457781398163
241.3765857271273
-119.63886644438472
-464.4925917841367
-788.0735680482807
-1086.5772636084398
-1357.4441329073197
-1599.2525918251597
-1811.5914158753296
-1994.9302313628298
-2150.49578042516
-2280.15139867245
-2386.27095982033
-2471.59774198595
-2539.08421158747
-2591.71719794937
-2632.33947238912
-2663.48186515613
-2687.21974251103
-2705.06465129442
-2717.89873793567
-2725.9578372266
-2728.86658298167
-2725.72329750734
-2715.22658868835
-2695.83179726152
-2665.92164628608
-2623.97223158345
-2568.6980082375
-2499.16846537584
-2414.8960540745397
-2315.89193299745
-2202.67927590779
-2076.25618896677
-1938.0141036855098
-1789.6303683005397
-1632.9524981736497
-1469.8793934918697
-1302.2373172258597
-1131.6532397207898
-959.4379051199477
-786.4936288392527
-613.2544999894297
-439.6585616538447
-265.1496962614727
-88.70755061618472
91.09553851037468
276.0085211381743
467.9811118468923
669.0042209357033
880.9114476961723
1105.1474083027804
1342.5134203063103
1592.9057244069104
1855.0681890548303
2126.38904896775
2402.77424644992
2678.62505704364
2946.93881872392
3199.54456074039
3427.47756449949
3621.48145206702
3772.60580676189
3872.84867838827
3915.7782324575
3897.06178215022
3814.84082203639
3669.91176054602
3465.6948324761
3207.99734566591
2904.60069825645
2564.7188481010503
2198.38686374069
1815.8424432024904
1426.9604156069304
1040.7886595671703
665.2159432187993
306.7828461876973
-29.37203092288701
-339.4560196588177
-620.8946377289006
-872.1736531711827
-1092.6850007355897
-1282.5960944515198
-1442.7483786431596
-1574.5821645267797
-1680.0776161021297
-1761.6952442472498
-1822.2995714330898
-1865.0573288327596
-1893.3082745265197
-1910.4106613314898
-1919.5709902662697
-1923.6766555996296
-1925.1504008664897
-1925.8379111866498
-1926.9348368606197
-1928.9591330674398
-1931.7711184159198
-1934.6356823494398
-1936.3152642942198
-1935.1805464004697
-1929.3250520941297
-1916.6699294072198
-1895.0486632297898
-1862.2676927050798
-1816.1450036284198
-1754.5349360664898
-1675.3534632627598
-1576.6198038416996
-1456.5261310989097
-1313.5397352533198
-1146.5340719843498
-954.9405991777577
-738.9103978989978
-499.4666041963337
-238.6173192213417
40.60819248972219
334.2351861506723
637.5521173599393
945.4446861260662
1252.8104454824604
1554.9807686946003
1848.0715971794702
2129.20139899003
2396.54306186737
2649.20488847989
2886.95986173885
3109.86281487187
3317.81056322702
3510.10656451872
3685.09138735994
3839.89709566096
3970.37345251712
4071.21229868788
4136.26853650768
4159.0491458793
4133.31913627573
4053.75611236181
3916.57374515024
3720.0339377259
3464.78360366589
3153.97980247922
2793.19508503625
2390.118607019
1954.0883726307402
1495.5058757426402
1025.1960561270603
553.7809219128853
91.13094783625408
-354.0575651069097
-774.5357708217927
-1164.6293402473598
-1520.2438214404597
-1838.7833408518898
-2119.0158477138098
-2360.91076221692
-2565.46920667556
-2734.56088960312
-2870.771439771
-2977.2537198106997
-3057.57228287752
-3115.5330029010297
-3154.99864032593
-3179.70035146678
-3193.05772331519
-3198.01727866866
-3196.91996882464
-3191.41136307041
-3182.40503461548
-3170.10065656676
-3154.0528677007
-3133.28527608372
-3106.43920807991
-3071.94009276294
-3028.16205455301
-2973.57540506659
-2906.870321985
-2827.05635520747
-2733.53538416958
-2626.1420794105697
-2505.1495088907
-2371.24321705874
-2225.46873470611
-2069.15710944095
-1903.8322023443998
-1731.1026429380397
-1552.5427201954897
-1369.5688639535397
-1183.3186909955998
-994.5403475484047
-803.5035228486958
-609.9452027527877
-413.0587587370357
-211.5283578815747
-3.6087904237927013
212.7463690544943
439.7049122690623
679.3267914311333
933.2956566191443
1202.6262823205002
1487.3658470909404
1786.3108108680003
2096.7663623142403
2414.38007176417
2733.08200116103
3045.15739686668
3341.46829100911
3611.82996018534
3845.53460220545
4031.9962562793103
4161.46969587277
4225.7764811413
4218.9620537725
4137.81174363075
3982.16677697981
3755.00262323396
3462.2607822421
3112.45656128717
2716.11260005979
2285.08356195563
1831.8409882353403
1368.7853064070302
907.6438086959553
458.9939126658643
31.925963638697286
-366.1588078290237
-729.6289092032557
-1054.6022247284197
-1338.8526545024897
-1581.6729891980697
-1783.7124196696998
-1946.7931691927797
-2073.70508487938
-2167.97771755211
-2233.6315739432
-2274.9155665517
-2296.0452688935297
-2300.96022221261
-2293.1162207398397
-2275.32406638874
-2249.64314530398
-2217.3355477238897
-2178.88103976109
-2134.04682620239
-2082.00588182883
-2021.5006343294997
-1951.0426093786298
-1869.1258799570996
-1774.4281598503696
-1665.9805538172898
-1543.2958377595896
-1406.4508374441398
-1256.1202660339598
-1093.5582430606996
-920.5258180717527
-739.1716613732227
-551.8815349057706
-361.1122265928707
-169.2196854491467
21.71257839130739
210.0372376659783
394.6882423298693
575.2936712171213
752.2403970544843
926.6756601966403
1100.4379037161702
1275.9185971269203
1455.8600143444803
1643.0916876316303
1840.2116874515903
2049.23081321198
2271.20792819598
2505.90805424905
2751.51565202938
3004.43548596791
3259.21098040516
3508.58494618439
3743.72035325259
3954.58776246236
4130.51006774082
4260.83619647448
4335.69594408673
4346.77133296273
4288.00872812503
4156.19189479428
3951.30369897148
3676.6281869180502
3338.58027274548
2946.2848308735
2510.9542086506
2045.1337160762503
1561.8966963043304
1074.0698632897604
593.5563923179913
130.80460664357528
-305.5517531151207
-708.8791182471697
-1074.5752857283796
-1399.9802100791896
-1684.2027458191396
-1927.8937452323496
-2132.98711166622
-2302.42242458764
-2439.8594196231898
-2549.39648916142
-2635.30632976139
-2701.79880921515
-2752.81895067899
-2791.8867632542
-2821.98035348647
-2845.4583505218397
-2864.01906731796
-2878.6973156589397
-2889.8975704693
-2897.4555319308697
-2900.71626763701
-2898.62065990252
-2889.79911714185
-2872.67493312041
-2845.57873088394
-2806.87307707767
-2755.08090855436
-2689.00392478872
-2607.81563315491
-2511.12078733785
-2398.9809243056197
-2271.909103207
-2130.8372357007397
-1977.0580662403997
-1812.1417896604098
-1637.8278297529598
-1455.8968141395396
-1268.0323054541698
-1075.6836218366097
-879.9418240808047
-681.4402622254847
-480.2876393817107
-276.0393854494757
-67.71445060141501
146.1350553706913
367.2975292174623
597.7204639290032
839.2797145564793
1093.5073048515603
1361.2887331040004
1642.5469710952102
1935.9392354159404
2238.60193276557
2545.98328756682
2851.79822991567
3148.13053302602
3425.69817953036
3674.28662835326
3883.33522808907
4042.63694291616
4143.09023417935
4177.42897228465
4140.85111669528
4031.47170601173
3850.5433757977203
3602.41725848514
3294.2519804402
2935.50863973258
2537.2912316142
2111.6052975113203
1670.6101459719903
1225.9331410740203
788.1032532409713
366.1443105639483
-32.65581497702051
-402.81013984059473
-740.5628554842127
-1043.7287872957397
-1311.4877539348697
-1544.1703169214297
-1743.0554858057797
-1910.1863886696096
-2048.20175428829
-2160.1776679732498
-2249.4727607865298
-2319.57134194605
-2373.9232749027
-2415.78525004485
-2448.0724858108897
-2473.22891669087
-2493.12100016371
-2508.96306605458
-2521.28702242865
-2529.96674584596
-2534.29775663817
-2533.12149275179
-2524.975225018
-2508.24710648139
-2481.32052466579
-2442.69859875944
-2391.10489050383
-2325.55878727691
-2245.42550757734
-2150.4438879865397
-2040.7375675448998
-1916.8132079322597
-1779.5449475344496
-1630.1410960902997
-1470.0881041963296
-1301.0692630108497
-1124.8613086042596
-943.2164731589587
-757.7370351120447
-569.7470595296107
-380.1677089273467
-189.4090711807727
2.7038759837728685
196.9557744696663
394.7058129022933
597.7871265555123
808.3397275402443
1028.5837779453802
1260.5476852398303
1505.7703818558903
1764.9989484063003
2037.9024878530304
2322.82421277687
2616.59779499854
2914.45595369862
3210.0542973340202
3495.6251738136402
3762.2696043096003
4000.38728332368
4200.22813350143
4352.52633789624
4449.16098035353
4483.78014605096
4452.3221532691105
4353.37169115221
4188.30798285888
3961.23205382786
3678.68806232662
3349.21305606881
2982.76275364368
2590.07144746307
2182.00907399219
1768.9938020374702
1360.5071172325304
964.7439775225102
588.4112531256693
236.6641846631253
-86.84818271500181
-379.8641641984917
-641.3504376214187
-871.3315735682347
-1070.7282558847396
-1241.2114913437097
-1385.0706889761298
-1505.0893228306097
-1604.4192449395098
-1686.4444861088298
-1754.6287653659497
-1812.3475322219997
-1862.7144237160896
-1908.4192449868397
-1951.5949854511398
-1993.7252876633697
-2035.5976934793498
-2077.30676608949
-2118.31002901385
-2157.53228665575
-2193.50425570631
-2224.51720452884
-2248.77768227061
-2264.55244901065
-2270.29895123892
-2264.77678711713
-2247.1316691706497
-2216.94107154151
-2174.2143267674
-2119.34924160353
-2053.0570731899697
-1976.2716999379697
-1890.0561065445797
-1795.5143268508998
-1693.7136019839697
-1585.6191553980498
-1472.0404161522497
-1353.5829692700797
-1230.5983198589397
-1103.1270607692697
-970.8397683752357
-832.9898989286097
-688.3987056893357
-535.4896751232787
-372.3805252562207
-197.0302379525997
-7.432263566438512
198.1558190971543
420.9558702561463
661.3998076701113
918.8673098655203
1191.4536425266103
1475.7908518416502
1766.9468981882703
2058.42979874646
2342.3236709173
2609.57638040419
2850.44121916319
3055.05068486962
3214.07781579093
3319.42363452772
3364.85784840943
3346.5389068764803
3263.3528934293
3117.03433747893
2912.0581686669602
2655.31498398537
2355.60239976534
2022.9886269115202
1668.1253793886804
1301.5900842258102
933.3186045149503
572.1646251048913
225.6026813523653
-100.42367171421172
-401.5231426724497
-674.7760155607046
-918.5866727456357
-1132.5034438650996
-1317.0347890102298
-1473.4820913192198
-1603.7962497172198
-1710.4520592539698
-1796.3271431174596
-1864.5727208157398
-1918.4686062420596
-1961.2620512384296
-1995.9982082616298
-2025.3544970985797
-2051.49100394064
-2075.93091364328
-2099.48944988967
-2122.26779653814
-2143.7159437985997
-2162.75251619982
-2177.9198044114
-2187.55049135226
-2189.92608355116
-2183.41487458913
-2166.58620046041
-2138.30047541455
-2097.7705657380798
-2044.5894188582995
-1978.7269803867398
-1900.5066501585698
-1810.5680366043398
-1709.8141272515497
-1599.3381529389396
-1480.3311739633598
-1353.9799747648196
-1221.3684921025797
-1083.3929478342498
-940.6943450303577
-793.6048694803947
-642.1019667902697
-485.7697570241367
-323.7765442070207
-154.8818844243817
22.512633555906987
210.2569918889363
410.2848585910553
624.3862759130493
853.9311104644963
1099.5621564397502
1360.8864504267603
1636.2016227342403
1922.2950335901003
2214.34563214943
2505.94922904006
2789.2821585679003
3055.41151370252
3294.7455421323
3497.59810804311
3654.82585993032
3758.48635323682
3802.45472257571
3782.9311277899
3698.77981567673
3551.66133541292
3345.94543216972
3088.41881833766
2787.82400907463
2454.27898118717
2098.63609681672
1731.8443281605703
1364.3743302866303
1005.7476609286803
664.1868376961883
346.3832674323543
57.371747446554494
-199.5004757737157
-422.5231987346857
-611.5069202895077
-767.6162157624607
-893.1648954159147
-991.3807320232287
-1066.1458438697698
-1121.7207402387996
-1162.4637225340098
-1192.5614110108997
-1215.7876922637797
-1235.3047067395396
-1253.5157677409697
-1271.9795349826497
-1291.3906258897896
-1311.6238574721297
-1331.8350458144098
-1350.6085507829198
-1366.1355535350096
-1376.4026461129497
-1379.3733618910096
-1373.1528604285097
-1356.1307985145997
-1327.0959639099597
-1285.3124779851996
-1230.5482254723497
-1163.0551441886996
-1083.5124415424798
-992.9472037386417
-892.6416305058127
-784.0309158529197
-668.5952828377947
-547.7515236876607
-422.7496995403877
-294.5795464700187
-163.8915010386897
-30.938114502270214
104.45976635208629
242.9182851993523
385.4593904962283
533.4316827969853
688.3771430639443
851.8477608450913
1025.1809845594303
1209.2444897091602
1404.1673913483003
1609.0850265803604
1821.9285914994803
2039.2861711171504
2256.35551829414
2467.0067939178302
2663.96945554771
2839.14705713005
2984.05146589458
3090.3350777895603
3150.38230905226
3157.90415271633
3108.47146774799
2999.92685650307
2832.62843102829
2609.49712432044
2335.85965059685
2019.1022020273504
1668.1727401184903
1292.9862440805002
903.7963310654783
510.5975301362823
122.61212234584528
-252.10270085060068
-606.9099698973567
-936.7095934911147
-1237.9323533936497
-1508.4416883398196
-1747.3805233170997
-1954.9952761037896
-2132.45603355116
-2281.68028310011
-2405.1617065653
-2505.8025438229897
-2586.7472589456
-2651.21769011673
-2702.35252632287
-2743.05462095805
-2775.8500541172198
-2802.76535906864
-2825.23405562232
-2844.04499329652
-2859.33806234011
-2870.64321976472
-2876.95516793486
-2876.83889530001
-2868.56440566754
-2850.26583498854
-2820.11094276008
-2776.46010812355
-2717.99603313878
-2643.8136774826
-2553.46906785471
-2446.9923258621498
-2324.87223431114
-2188.01797971198
-2037.7020804980498
-1875.4873002402796
-1703.1385081742196
-1522.5199424987297
-1335.4805559560298
-1143.7321202207397
-948.7237112407797
-751.5169736052327
-552.6746864916477
-352.1833797809487
-149.4293755873577
56.761061972410694
268.0162495628763
486.2529617954383
713.4561184240043
951.4149099672363
1201.4350636093502
1464.0527851614802
1738.7737182514104
2023.8549824142203
2316.14631984402
2611.0084559495
2902.32928822334
3182.65794667856
3443.47117939776
3675.57620780608
3869.63940262534
4016.80856635682
4109.3721574272
4141.3829814933
4109.17265252608
4011.69474920876
3850.65597839006
3630.42160714103
3357.70920753373
3041.10986067843
2690.4948778843
2316.37495823621
1929.2766777282902
1539.1915135725303
1155.1378371585604
784.8570488627123
434.6447309275723
109.30255943074329
-187.8116572345237
-454.6633175105887
-690.3790855789277
-895.0695250911567
-1069.6546559526796
-1215.7043352598796
-1335.3011811902097
-1430.9262711207498
-1505.3570795774997
-1561.5633986402797
-1602.5931237629798
-1631.4467614908797
-1650.9445589838097
-1663.5973512452797
-1671.4972823663297
-1676.2404774220497
-1678.8854367423396
-1679.9472093177897
-1679.4274379695896
-1676.8788620801097
-1671.4990425017197
-1662.2440577447796
-1647.9499465069896
-1627.4482253021397
-1599.6623032843497
-1563.6737618045797
-1518.7518452475197
-1464.3481136661096
-1400.0678015515998
-1325.6322925265297
-1240.8436730513097
-1145.5601183070296
-1039.6917263187797
-923.2267550577407
-796.2948794486377
-659.2573401486247
-512.7745595657327
-357.77561054547573
-195.2995965120837
-26.26601577134081
148.7359559698043
329.5822229418203
516.6537608984873
710.7814171942083
913.1028505422203
1124.8424024944104
1347.0282572141002
1580.1694357187703
1823.9256839591803
2076.8086352272203
2335.95066139182
2596.97217473908
2853.9700297109102
3099.6394004281
3325.53265763128
3522.45310315015
3680.97215415979
3792.03992810924
3847.63946329997
3841.42413278392
3769.2747054319
3629.71321780891
3424.11798638112
3156.70448734119
2834.27103965604
2465.74332311504
2061.57460951772
1633.0688750567003
1191.6967848910604
748.4712030391993
313.4360264414913
-104.70164637346971
-498.7920802544757
-863.3302159286437
-1194.4339723543396
-1489.7452817522496
-1748.2886661606597
-1970.3155788518798
-2157.14849065115
-2311.02574666782
-2434.94172758658
-2532.47533263952
-2607.60140076902
-2664.48382340224
-2707.25352341045
-2739.77816769811
-2765.43686177027
-2786.92187368342
-2806.09253927604
-2823.90038736416
-2840.39514178043
-2854.81193688653
-2865.7284967097
-2871.269476286
-2869.33159968889
-2857.80893825462
-2834.80328674443
-2798.80392500077
-2748.81944923292
-2684.4484083929
-2605.88464436264
-2513.8638051141497
-2409.56623965279
-2294.49565298068
-2170.35096305009
-2038.9017292947997
-1901.8702562507297
-1760.8206663303197
-1617.0549432125797
-1471.5154422994397
-1324.6957931271797
-1176.5678718718098
-1026.5344376666396
-873.4127523023247
-715.4516128005947
-550.3870992362987
-375.5451679235077
-187.9976024904477
15.224775725228689
236.8608297235423
479.0968654700053
743.2125107159083
1029.2241697635202
1335.5604624816904
1658.8057136025502
1993.5501391791104
2332.38663829157
2666.08845726442
2983.98889468586
3274.56753150853
3526.22612261357
3728.19594857603
3871.4527780716403
3949.4672355973403
3958.63216001139
3898.29226000134
3770.45236996429
3579.37527689866
3331.23855673344
3033.84027999837
2696.25640741097
2328.41313372393
1940.6097417834703
1543.0446613961303
1145.3866330543703
756.4209006918003
383.7903564214543
33.83714549218209
-288.4666311923007
-579.5203814697948
-837.0503370528537
-1060.0359702855396
-1248.6179602933396
-1403.9891130254898
-1528.2616843910896
-1624.3021146225597
-1695.5280482011997
-1745.6713501271597
-1778.5212722023498
-1797.6683691816097
-1806.2708637435896
-1806.8651367390496
-1801.2410943744196
-1790.3961449735898
-1774.5692841665998
-1753.3455424697697
-1725.8119956726398
-1690.7400363245497
-1646.7684913579396
-1592.5685839147498
-1526.9804128290598
-1449.1178647467498
-1358.4421198011296
-1254.8039005655996
-1138.4557471645296
-1010.0385188725397
-870.5478341613167
-721.2859225611477
-563.8030943303967
-399.8307834564617
-231.2053721249227
-59.7787747744562
112.68903210266329
284.6542995988073
454.9198129548533
622.7552678153532
787.9920918678563
951.0781152088083
1113.0769926639302
1275.5977419868902
1440.6454876704804
1610.3953058054203
1786.9010311803104
1971.7580870521103
2165.74753527279
2368.49701603447
2578.19843926021
2791.42104943103
3003.05318466195
3206.3963848181
3393.42131117459
3555.17918038767
3682.3473140239303
3765.87235637062
3797.66060176077
3771.25310726807
3682.415262485
3529.57141236086
3314.02880596686
3039.95949504723
2714.14005331967
2345.4815706969603
1944.4070806420702
1522.1443201682503
1090.0016690317202
658.6906206849383
237.7501748871303
-164.8857721029377
-543.1567905719727
-892.9778148478727
-1212.1863695502698
-1500.3575954953997
-1758.5177130251898
-1988.7885367146996
-2193.9910256057
-2377.2310089663797
-2541.48908924866
-2689.23941440283
-2822.12914102043
-2940.76207146287
-3044.64450904376
-3132.35138203606
-3201.9384478593897
-3251.56313847837
-3280.1643412272
-3287.93255115153
-3276.34837536958
-3247.81482383997
-3205.11540753365
-3150.92005733639
-3087.43582453676
-3016.21196069614
-2938.08035205439
-2853.20420174071
-2761.20467044776
-2661.33425075901
-2552.66561600925
-2434.26887615705
-2305.3590257863398
-2165.4047222446598
-2014.1977188365497
-1851.8870125481997
-1678.9795194783296
-1496.3041564858397
-1304.9370313300897
-1106.0929923608996
-900.9969339135627
-690.7511155610847
-476.2127470386917
-257.8944389092717
-35.89967435614861
190.0965033908563
420.8136500939323
657.2726781825203
900.6409355681703
1152.0199465274602
1412.1885496074703
1681.3243866749604
1958.7326599589403
2242.60766965208
2529.84894593564
2815.95713257558
3095.03593771346
3359.91870413708
3602.42854085791
3813.77308727354
3985.0614941295603
4107.90915818927
4175.07392568962
4181.05501149832
4122.5855729712
3998.96145002309
3812.16859409661
3566.7954661888202
3269.74182223432
2929.75778548087
2556.8623277893303
2161.6999691652
1754.9010978674403
1346.5104762399803
945.5357748912382
559.6449376606263
195.0133734434493
-143.7020510579807
-453.2972914171737
-731.8977441365276
-978.8039578893637
-1194.3268205391596
-1379.6271700673997
-1536.5659864136296
-1667.5602652558896
-1775.4338912649298
-1863.2572691262797
-1934.1789988690198
-1991.2576162659498
-2037.2994862192497
-2074.70775414116
-2105.35256259161
-2130.48052888146
-2150.68116506311
-2165.91614715756
-2175.6044636993497
-2178.75210871502
-2174.1155706524
-2160.38542460375
-2136.36991883381
-2101.1560780222
-2054.23002847213
-1995.5443479029298
-1925.5262724673996
-1845.0276324341996
-1755.2230002065196
-1657.4650119396197
-1553.1089920982197
-1443.3239315660296
-1328.9093089592798
-1210.1375752071397
-1086.6439044156898
-957.3863835424997
-820.6982670177767
-674.4507684407718
-516.3419212016076
-344.3076457764217
-156.9720842347357
46.05871693657479
264.2331194005843
496.3712196434933
741.0338996978182
996.7628548264233
1262.1493194341003
1535.7576431486502
1815.9439474233202
2100.6153619575402
2386.97761934932
2671.31817948772
2948.86695832364
3213.76496990464
3459.15871437922
3677.4304481929503
3860.56593927542
4000.64479739759
4090.41453484571
4123.88543782509
4096.87124190186
4007.4072087619
3855.99615868142
3645.6550748581
3381.7571243871803
3071.6863253438
2724.34281777653
2349.5531557163
1957.4510938616702
1557.8972186317103
1159.9952273220003
771.7390841377353
399.7976123783633
49.42165050018999
-275.5513349325367
-572.6224817750586
-840.5134930663427
-1079.0284072405598
-1288.9101444811697
-1471.6990979029397
-1629.5948256446397
-1765.3146247151096
-1881.9387591812397
-1982.7374367119296
-2070.98551260064
-2149.77775573106
-2221.8574398391497
-2289.46908076711
-2354.24587463094
-2417.14218655854
-2478.41873583154
-2537.68351724305
-2593.98656361831
-2645.9586114569597
-2691.97186348226
-2730.29543079372
-2759.22746813418
-2777.20158710938
-2782.87076779472
-2775.16784594991
-2753.3400292799797
-2716.95837954282
-2665.9061983912097
-2600.35161065605
-2520.71043230502
-2427.60524255092
-2321.82452489406
-2204.28191790578
-2075.97212743307
-1937.9169810733097
-1791.0924735301596
-1636.3307094256397
-1474.2013298153897
-1304.8885723216297
-1128.0863418302697
-942.9334673854507
-748.0062780325767
-541.3791160070407
-320.7588368475627
-83.69660111308741
172.1239101774793
448.5301963345623
746.4549829179683
1065.5103976671103
1403.5833470442403
1756.5022968263704
2117.82861301407
2478.82042726987
2828.60820917941
3154.6114920527903
3443.20795244186
3680.63065786826
3854.02357119022
3952.55601609564
3968.49854605479
3898.16182424839
3742.56485334769
3507.67481970259
3204.10871998636
2846.28965243259
2451.16094705274
2036.6418729832903
1620.0196007523102
1216.4520362588203
837.8009890212093
492.0512394890093
183.4067381023013
-87.12750446119722
-320.9741170365197
-521.2162398648417
-691.9193154953357
-837.5813837801987
-962.7234001882647
-1071.6063777054896
-1168.0491662329298
-1255.3202270326497
-1336.0839045862197
-1412.3879031619997
-1485.6787952010998
-1556.8308095161897
-1626.1773225143097
-1693.5437234263197
-1758.2876802020696
-1819.3549691191297
-1875.3571795362498
-1924.6730812662297
-1965.5690835953997
-1996.3286306024797
-2015.3795063850598
-2021.4102763881497
-2013.4662286272596
-1991.0124541484397
-1953.9541621594196
-1902.6131310442297
-1837.6696180918698
-1760.0843071331697
-1671.0122077850697
-1571.7161951290498
-1463.4855700401297
-1347.5606595260197
-1225.0606677432997
-1096.9134489273697
-963.7879783576927
-826.0306665271657
-683.6103864530247
-536.0829975505077
-382.5873757022637
-221.8808943471797
-52.41731512422241
127.53220261750629
319.7135503248733
525.6790400205794
746.5368334539543
982.6747988677713
1233.4841805509902
1497.1172029908403
1770.3138793649803
2048.3276986099004
2324.9716796952002
2592.79667251558
2843.4036025975
3067.8800068200103
3257.33546240517
3403.49284532729
3499.27976686816
3539.36035046746
3520.55210701374
3442.08470634632
3305.67525436812
3115.41601526498
2877.48990251751
2599.74478163538
2291.17223689377
1961.3470667406402
1619.8847727212603
1275.9641288696703
937.9448568960033
613.0949908845423
307.4318402618883
25.670162527344687
-228.7410863452827
-453.5225091873667
-647.4399078939628
-810.1755329277617
-942.2077030453357
-1044.7056045597296
-1119.4472869646797
-1168.7705015239196
-1195.5595075608796
-1203.2515654308597
-1195.8164974617398
-1177.6505556482798
-1153.3567637506696
-1127.4328677456097
-1103.9386525696598
-1086.2455026527798
-1076.9158791048396
-1077.6548574375197
-1089.2566180695096
-1111.5435593707498
-1143.3425613914897
-1182.5122023016797
-1226.0059497734196
-1269.9941502223996
-1310.1111049023198
-1341.8542889304397
-1361.0616833115596
-1364.3342888714897
-1349.3076551460297
-1314.7530190649397
-1260.5345828170098
-1187.4598949553197
-1097.0582169590698
-991.3174973995427
-872.4078791965208
-742.4179019766207
-603.1257472300628
-455.8243985522087
-301.2184905673867
-139.4064064717327
30.049041897317988
207.9675575582523
395.3267057276643
592.9812640982583
801.3502512075223
1020.1016270647704
1247.8669608235703
1482.0196118650904
1718.5487469232103
1952.0545215714203
2175.87965109785
2382.38181299928
2563.33782348804
2710.45462214682
2815.94740606491
2873.13386755316
2876.98599605959
2824.57897216885
2715.38325372025
2551.36281626697
2336.86665405136
2078.3255264836403
1783.7880594845103
1462.3493426788102
1123.5388713940804
776.7379115004163
430.6841815411323
93.09734196809988
-229.5653870220087
-532.2295849788627
-811.2147227368517
-1064.1564361612197
-1289.8643160465597
-1488.1427665275296
-1659.6037919836597
-1805.4955317540498
-1927.5588110320098
-2027.9105165853298
-2108.94054533609
-2173.20360451939
-2223.29468400952
-2261.71289072341
-2290.72904926398
-2312.27261138587
-2327.84753453837
-2338.47983675178
-2344.69581175979
-2346.5315161741
-2343.57571239272
-2335.04493681453
-2319.8845049616098
-2296.8871830867997
-2264.82081872671
-2222.55526903342
-2169.17619179745
-2104.0709972942
-2026.9752310283197
-1937.9751253987497
-1837.4700084330498
-1726.1046993313198
-1604.6844055335796
-1474.0823461764696
-1335.1473683880397
-1188.6181655427097
-1035.0521308225398
-874.7781096679317
-707.8797185565857
-534.2094248579917
-353.4302852345477
-165.0968231842187
31.189157522633288
235.5532605921833
447.6874930400103
666.9207701046523
892.4990500062213
1123.8532353353403
1360.6575096450904
1602.6427499408803
1849.2376724604103
2099.13950693903
2349.92012544336
2597.75915888788
2837.36282756088
3062.09655460394
3264.3313313970402
3435.96319390462
3569.0259584321902
3656.31567456745
3691.9745368643103
3671.99556189847
3594.60025169835
3460.4422564469
3272.61070684148
3036.43329809104
2759.10261874441
2449.17015793047
2115.96873256219
1769.0286122444802
1417.5449551594702
1069.9402571217404
733.5475236920223
414.4195068317823
117.25210525991729
-154.6001752237457
-399.0421506940517
-615.1143676138047
-802.8517751892188
-963.1436176887457
-1097.6025595862297
-1208.4391266604996
-1298.3309141198997
-1370.2764099403396
-1427.4312350192297
-1472.9362110437596
-1509.7519333898697
-1540.5097817119997
-1567.3837051746998
-1591.9884188774497
-1615.3125124402898
-1637.6924864772898
-1658.8299690618596
-1677.8552208789397
-1693.4397592636396
-1703.9505830872697
-1707.6253602861698
-1702.7468183885496
-1687.8018290297498
-1661.6126579566896
-1623.4258090335297
-1572.9477930813198
-1510.3279573871896
-1436.1000580241498
-1351.1007010702797
-1256.3804903570397
-1153.1160425239298
-1042.5260231053596
-925.7937963150307
-803.9991444810647
-678.0594838633617
-548.6788419588427
-416.3038216352797
-281.0887438340837
-142.8731278791457
-1.174100607866511
144.8016868720053
296.1172943689383
454.0247717851563
619.8387530062013
794.7678303398593
979.7146532575873
1175.0602824845703
1380.4512654182004
1594.6096550136504
1815.1869857903203
2038.6820209287803
2260.43787533858
2474.72899360887
2674.94370224026
2853.86123972977
3004.01117874586
3118.08917574546
3189.39150541898
3212.22746217698
3182.27310617515
3096.83949442639
2955.04026131077
2757.84965893144
2508.04975658186
2210.09816289398
1869.9806095390004
1495.0804303592404
1094.0224572365503
676.4251955316943
252.5363676748003
-167.2231475709487
-572.7613751127337
-954.8245267212857
-1305.4749692817797
-1618.4818282912097
-1889.5710713659996
-2116.51872280784
-2299.10425726587
-2438.94930347852
-2539.26462167173
-2604.5295434457
-2640.12846461457
-2651.9645828807597
-2646.0691044105897
-2628.2274250873097
-2603.64379507181
-2576.66158367875
-2550.55525860523
-2527.4104912022
-2508.1023032942
-2492.36915494586
-2478.96991440471
-2465.90315155361
-2450.6633690924
-2430.507346894
-2402.70759955011
-2364.77629274236
-2314.64713650837
-2250.80654934623
-2172.3708719147
-2079.11023672687
-1971.4214693149697
-1850.2552268573497
-1717.0060286824396
-1573.3758541448096
-1421.2223412063397
-1262.4014561438996
-1098.6127474276097
-931.2551570049907
-761.3025415270837
-589.2075869574637
-414.8415597580607
-237.4778132458857
-55.82527033196311
131.8866255330953
327.7698603336483
534.0817106206183
752.9696717616183
986.1672915963013
1234.6609681994203
1498.3576410392502
1775.7911931937504
2063.9048447574
2357.93923864308
2651.44947457892
2936.4695743094003
3203.83320495444
3443.64367476494
3645.86900713228
3801.0207628626
3900.8566297195002
3939.0322916743003
3911.62821997601
3817.49308849999
3658.36988790537
3438.79665361043
3165.79722853801
2848.3982898119
2497.0270568679803
2122.85422349677
1737.1432684006104
1350.6543874492702
973.1377486231103
612.9391426048403
276.7284734826793
-30.651713111933216
-306.2311979115147
-548.8691683843267
-759.1381030519257
-939.1393675723477
-1092.2497412210098
-1222.8004964190598
-1335.6962806658596
-1435.9868828556098
-1528.4134534946397
-1616.9618158861297
-1704.4648856355298
-1792.3023270218796
-1880.2486412010696
-1966.5180563647098
-2048.02793077847
-2120.82003663075
-2180.49150540743
-2222.53441054279
-2242.6242496938
-2236.90527847525
-2202.20974359619
-2136.16676131655
-2037.3100007581597
-1905.3277850949396
-1741.4297359301697
-1548.6357874334597
-1331.8151178665596
-1097.4327585805697
-853.0114516609527
-606.3356981951197
-364.5589225688497
-133.47753312432872
82.87704103319969
282.3606465500783
464.6479988499513
631.0424994660643
784.2055496642213
927.8326653098673
1066.2952329357504
1204.2602439341504
1346.2974074666204
1496.4866944799003
1658.0431958904803
1832.9740212018403
2021.7800224680002
2223.22056831377
2434.1685220724303
2649.58467078495
2862.63162898499
3064.93360253132
3246.9791576369803
3398.65737748661
3509.90429659122
3571.41513419887
3575.3596876800502
3516.03205341001
3390.36821230547
3198.27217189161
2942.70776145781
2629.54053040645
2267.1457938348
1865.8275062163202
1437.1138932259803
993.0071838994633
545.2661210980773
104.79002798347828
-318.8491431817897
-717.7103494069777
-1085.6333392584797
-1418.2606476119997
-1712.9603471872997
-1968.6781309188698
-2185.74796699289
-2365.68606224885
-2510.98163469994
-2624.88592894735
-2711.1932724653198
-2774.00831505477
-2817.50296849941
-2845.67860589012
-2862.15349767235
-2869.9898461878497
-2871.56696430177
-2868.5044320327697
-2861.64042484108
-2851.06900108208
-2836.23222436706
-2816.05433416922
-2789.10330023141
-2753.76755497579
-2708.43512206452
-2651.6581517844597
-2582.28324079918
-2499.53168653492
-2403.02457106888
-2292.7588133477198
-2169.04534675339
-2032.4207821448397
-1883.5435008378697
-1723.0855410792997
-1551.6326660985396
-1369.6046052126196
-1177.2045323418197
-974.4027369507427
-760.9560187417158
-536.4639677521147
-300.4649414756057
-52.572024517164806
207.3604679669183
479.0614788284563
761.6869860576683
1053.7107082355703
1352.8888029433003
1656.3302010385503
1960.6894691355203
2262.4241291900303
2557.97588942012
2843.78173329866
3116.15963585424
3371.14960168317
3604.32499205037
3810.58706825917
3984.03663699937
4118.0739886146
4205.82710114663
4240.84011541805
4217.81034502239
4133.19536803858
3985.63909075321
3776.21978300591
3508.5087080798503
3188.42428189851
2823.88909548822
2424.32843751457
2000.0733232826303
1561.7386108773903
1119.6401767348402
683.3022330420283
261.0899659517073
-140.0161782429827
-514.5086708594897
-858.3260250457276
-1168.7451114932896
-1444.2305914845797
-1684.2769891168398
-1889.2705065553796
-2060.3826624929898
-2199.49026706476
-2309.1022346618397
-2392.26923271341
-2452.45992859117
-2493.40062043846
-2518.8845205254697
-2532.56283046981
-2537.7343951448797
-2537.15347297903
-2532.87502952174
-2526.15413744896
-2517.41142858148
-2506.26998142999
-2491.65933578154
-2471.97181711713
-2445.25100422282
-2409.39255163804
-2362.33900377087
-2302.25334102366
-2227.66333971534
-2137.57504085725
-2031.5520546398598
-1909.7520349071997
-1772.9122499369796
-1622.2839130072996
-1459.5224020530898
-1286.5440228636096
-1105.3624758604897
-917.9215560775267
-725.9408664358117
-530.7850517644576
-333.3604599430357
-134.04384025874072
67.34843226498698
271.5419744696023
479.7302037328733
693.4405735398593
914.3434344747403
1144.0120220461104
1383.6457995242104
1633.7734817148903
1893.9588652936802
2162.5395516428302
2436.4305675680203
2711.0198554561903
2980.1767666045303
3236.3925073937503
3471.06706893955
3674.94604893569
3838.69466497126
3953.5735754205402
4012.1534854238203
4008.98613037518
3941.14928896025
3808.59976600174
3614.2904786448403
3364.03227885297
3066.1106741275103
2730.69798314724
2369.12283748008
1993.0703102953203
1613.7920993555203
1241.4043762603303
884.3358615058793
548.9656165271613
239.4697080063273
-42.12032617697341
-295.6598097472247
-522.4594261954506
-724.7251726050287
-904.9596665237277
-1065.4558951594997
-1207.9964623579397
-1333.7995902946698
-1443.6757162701297
-1538.2964759548697
-1618.4525548217798
-1685.2117621129098
-1739.9534396424397
-1784.2995754204896
-1819.9774668227296
-1848.6494155952198
-1871.7421267285997
-1890.3040968232597
-1904.9122458137397
-1915.6393790999998
-1922.0830673551798
-1923.4471150207096
-1918.6613525858797
-1906.5225557536996
-1885.8387290626397
-1855.5624388178996
-1814.9025444368297
-1763.4043208186297
-1700.9897966051196
-1627.9562359679496
-1544.9377148462897
-1452.8389729518397
-1352.7518265196297
-1245.8628908031296
-1133.3581332589097
-1016.3275059229197
-895.6730455206527
-772.0259309514307
-645.6802006707537
-516.5498078231857
-384.1529366438437
-247.6279668911927
-105.78762631869671
42.78255059024419
199.5796962746053
365.9988443960303
543.1197025605563
731.4777368182623
930.8331579586323
1139.9565723581902
1356.4563827560003
1576.6744874987403
1795.6721907045503
2007.3221129185604
2204.51769949539
2379.50529674089
2524.32968408692
2631.36591824381
2693.89438247276
2706.66356654598
2666.37639957098
2572.03574276515
2425.10074664871
2229.4355816655902
1991.0615079350503
1717.7443515803702
1418.4641367882803
1102.8218510344002
780.4388615968563
460.4015966519563
150.7985363926413
-141.6166640932247
-411.6211890813417
-655.5826593468497
-871.4035099260027
-1058.3815069507798
-1217.0181536199498
-1348.8011486074397
-1455.9810098459798
-1541.3562347952497
-1608.0733512687798
-1659.4395597781597
-1698.7437367454897
-1729.0871723249397
-1753.2294153852897
-1773.4541182442097
-1791.4609422986898
-1808.2923486095297
-1824.3038897367096
-1839.1845848749397
-1852.0321894404497
-1861.4856570347897
-1865.9127675505797
-1863.6427616999197
-1853.2207211639397
-1833.6479670657498
-1804.5690666086898
-1766.3704034057896
-1720.1612031129298
-1667.6164682507897
-1610.6769213371697
-1551.1353169215097
-1490.2162440633297
-1428.3272908606298
-1365.0882336144098
-1299.5606559279897
-1230.5154841573496
-1156.6418932218396
-1076.6797292224796
-989.4845849935407
-894.0398126936727
-789.4314760967377
-674.8029851618767
-549.3066818893117
-412.0678361310127
-262.1741478113477
-98.70367106936472
79.19893846779438
272.1975374448233
480.5999136014053
704.1662871141313
941.9074150441453
1191.8955897612002
1451.1153910536802
1715.3783351382003
1979.3224023634402
2236.5148506905903
2479.66753129956
2700.95901574323
2892.44706838943
3046.54878951552
3156.5550635545
3217.13063638164
3224.74211446935
3177.96077400673
3077.60303822349
2926.69270122061
2730.25149309114
2494.94504612832
2228.62576640868
1939.8236305455102
1637.2408671179503
1329.3004297700802
1023.7812898918203
727.5545475985663
446.4184639414443
185.0195572348763
-53.15917173809831
-265.7643679582937
-451.5117315109477
-610.1096612725067
-742.1704182502647
-849.1083184693297
-933.0216902892497
-996.5527519469797
-1042.7211748687198
-1074.7342881633997
-1095.7850074402397
-1108.8523205728397
-1116.5190028898496
-1120.8211396956497
-1123.1437740769097
-1124.1731963462098
-1123.9103861764297
-1121.7447178615398
-1116.5798832909998
-1106.9956613538097
-1091.4257747233796
-1068.3339624212797
-1036.3735581706796
-994.5194705036947
-942.1644400336597
-879.1730679705067
-805.8910213706297
-723.1140815473827
-632.0266485992527
-534.1182491819577
-431.0823281675117
-324.6998181960647
-216.7130241810617
-108.69710661436872
-1.9329790054107017
102.71499658829688
204.90690975082128
304.9069858998023
403.6214159883733
502.5806096666583
603.8542100383983
709.8943525391034
823.3104739626773
946.5853536025163
1081.7500173552103
1230.0437391749704
1391.5905843542002
1565.1256406903703
1747.8038763399602
1935.1224474378603
2120.9833375735902
2297.9177099910503
2457.48566700061
2590.85269456663
2689.51235725894
2746.0531851362302
2754.8025266089403
2712.22630296866
2617.09447078544
2470.4839251223802
2275.65584128393
2037.8104285412603
1763.7263313935803
1461.3112176644704
1139.1069164638402
805.7988985763133
469.7751154487783
138.7670688222643
-180.4096901840797
-482.0148762569777
-761.4566810452857
-1015.3023692252597
-1241.2514187771997
-1438.0912175566298
-1605.6448315778598
-1744.7087462597797
-1856.9725055770898
-1944.9115805575198
-2011.6448041118697
-2060.75253647893
-2096.06450427258
-2121.43440759242
-2140.51418083323
-2156.53662697067
-2172.120735167
-2189.12130642759
-2208.54263881489
-2230.52483231189
-2254.3984690358297
-2278.79589740133
-2301.80563348405
-2321.1557167022597
-2334.41013482498
-2339.16235717765
-2333.21181669846
-2314.7113328863197
-2282.27690953972
-2235.05443956069
-2172.73856640012
-2095.54275596248
-2004.1288588390296
-1899.5103633264198
-1782.9426668693998
-1655.8126752549197
-1519.5399512705696
-1375.4972852481196
-1224.9507542577496
-1069.0130206184997
-908.6000612543266
-744.3826356078278
-576.7323982626928
-405.6728009176547
-230.8484345734887
-51.52495945389481
133.3697864814533
325.1556690018073
525.2595744108363
735.0303141543174
955.5200067384333
1187.2448637674404
1429.9431909967902
1682.3551666205703
1942.0495661729904
2205.31771811726
2467.1527060859203
2721.3318906345503
2960.61624718338
3177.06830809012
3362.47367204864
3508.83518633663
3608.90158092721
3656.69074244771
3647.9625284673302
3580.58947236367
3454.77807695288
3273.11241246565
3040.41733561955
2763.4616537217503
2450.53764132046
2110.96095972986
1754.5356967158002
1391.0272534438702
1029.6824702666902
678.8290534905453
345.5736620935413
35.60222624890729
-246.92751413828572
-499.4187020964697
-720.8113343263227
-911.5123311866737
-1073.2780083658097
-1209.0384651154898
-1322.6530986659498
-1418.5891181227896
-1501.5212260032897
-1575.8774518514197
-1645.3991840323097
-1712.8051885024897
-1779.6342205811898
-1846.2925209632597
-1912.2577171504297
-1976.3420809353497
-2036.9387330446898
-2092.2231699349
-2140.31004962994
-2179.3737066652698
-2207.74307052991
-2223.97780204102
-2226.92466760326
-2215.75005833824
-2189.9492343644797
-2149.33715005935
-2094.02424253157
-2024.3795102010297
-1940.9864735845797
-1844.5991269068297
-1736.1012442023698
-1616.4683254991396
-1486.7312306215097
-1347.9419797850596
-1201.1415255352797
-1047.3273646261298
-887.4179805889808
-722.2106582443637
-552.3311236153937
-378.1796226110227
-199.8821686836807
-17.254285177473612
170.2159045675623
363.3550902657053
563.2507369960093
771.1472537747043
988.2914368620873
1215.7335071396103
1454.0952166768602
1703.3216768533202
1962.4408182727802
2229.35877023716
2500.71541614871
2771.81786984205
3036.6691312459
3288.11148487612
3518.09978649432
3718.10447844216
3879.6225774975
3994.75533646381
4056.79742110226
4060.77494478299
4003.87199292963
3885.6975671282203
3708.36240537386
3476.35682138391
3196.24675549407
2876.22799336538
2525.58900955241
2154.13413472533
1771.6197129208103
1387.2553927629403
1009.3126843391103
644.8627100769323
299.6417102133203
-21.97579232855331
-316.9252217741487
-583.3513480424388
-820.4859574125247
-1028.5243517829497
-1208.5098788421396
-1362.2251786505697
-1492.0822394427896
-1600.9991472736797
-1692.2518200289796
-1769.2965191138296
-1835.5702267716397
-1894.2851543298598
-1948.2374321317698
-1999.6496315701997
-2050.0635486473698
-2100.2927073218298
-2150.43475634961
-2199.93604838715
-2247.69607866453
-2292.19899146876
-2331.66221638218
-2364.1929893083397
-2387.9387194249
-2401.21424969474
-2402.59527895184
-2390.97671660973
-2365.60001501431
-2326.0561955929197
-2272.27260358585
-2204.48949165669
-2123.22867949073
-2029.2535026610597
-1923.5201718450796
-1807.1252681526796
-1681.2540249103097
-1547.1272495779397
-1405.9415031526996
-1258.8002743597797
-1106.6366150080296
-950.1302083665697
-789.6270895492917
-625.0734246066777
-455.9727156000117
-281.3742295697297
-99.90286628652072
90.15761892633539
290.7201496005093
503.6899136456253
730.7108700651974
972.8806883863563
1230.4564243193604
1502.5762536231703
1787.0216450300802
2080.04282079361
2376.27378964262
2668.76696812695
2949.17160726898
3208.0653336865803
3435.43231928604
3621.26686406377
3756.2625791302403
3832.52472837024
3844.22600835902
3788.12515076224
3663.88521983251
3474.15605654449
3224.41403866032
2922.57993297445
2578.46197585962
2203.09103601101
1808.0205304964104
1404.6565721638904
1003.6719107072813
614.5432061563293
245.2312085408383
-97.99814854669071
-410.6278029776297
-689.8429684661487
-934.4135870192707
-1144.5330977306596
-1321.6312189999396
-1468.1704091324298
-1587.4305277162498
-1683.2829256780997
-1759.9565354066597
-1821.8017808503996
-1873.0585114817598
-1917.6343495197398
-1958.9031035148496
-1999.5370046480298
-2041.3882550564097
-2085.43256575845
-2131.77956228925
-2179.7452714375
-2227.974522429
-2274.59893446961
-2317.41786149429
-2354.08856542585
-2382.30759621036
-2399.96642529572
-2405.27199166197
-2396.82910142923
-2373.6840249686697
-2335.33146254717
-2281.69236365974
-2213.07401661622
-2130.12236056337
-2033.7712171111998
-1925.1881304277697
-1805.7140085569997
-1676.7940345294696
-1539.8987324078796
-1396.4340990104597
-1247.6387278402997
-1094.4689687946097
-937.4821312217287
-776.7355232823007
-611.7202335207697
-441.3450127606027
-263.9803110039947
-77.56672881505881
120.21409499819329
331.7142465640973
559.0506872306403
803.8044583539823
1066.7055056598904
1347.3286619045302
1643.8279711693403
1952.7337514533103
2268.8372267845903
2585.1909560140703
2893.25203767669
3183.18442291967
3444.31884007376
3665.74917098718
3837.0261738549702
3948.89333644945
3993.9963198854202
3967.49164342135
3867.48600311464
3695.25539701602
3455.21983369993
3154.67785998047
2803.33048748087
2412.64617751285
1995.1352676550803
1563.6074005059404
1130.4769765643002
707.1663968454563
303.6417297338093
-71.90163634593532
-413.2064849069177
-715.9951587927267
-977.9134910237987
-1198.4049155540497
-1378.5361611160797
-1520.7862164847697
-1628.8006230726396
-1707.1091652577697
-1760.8086830801496
-1795.2226301945998
-1815.5599782887098
-1826.5999805078498
-1832.4250760135897
-1836.2183837790296
-1840.1371905535098
-1845.2678779750397
-1851.6618101918198
-1858.4462738457196
-1863.9974784992196
-1866.1547172921296
-1862.4510664982197
-1850.3391332201197
-1827.3964638870298
-1791.4990302916897
-1740.9532845887798
-1674.5819534349896
-1591.7665598517897
-1492.4556108590898
-1377.1461479291297
-1246.8399924390396
-1102.9737950969497
-947.3268524766777
-781.9144946040877
-608.8728016519877
-430.3365801504247
-248.3110010412887
-64.53906648743842
119.62775315913228
303.3422917745953
486.3424615885313
668.9881973201443
852.2476276878533
1037.6280692583302
1227.0480552107304
1422.6477205631104
1626.5392318071104
1840.5073445954004
2065.68019168168
2302.19771450846
2548.90692481027
2803.11288709808
3060.4167992102
3314.67466633451
3558.10517835512
3781.56253833109
3974.97310217647
4127.91807764462
4230.3288281157
4273.24261199468
4249.54530294644
4154.61561493355
3986.79315886559
3747.61531846067
3441.79519584498
3076.9426359131303
2663.06075693275
2211.87410233764
1736.0586146267804
1248.4511079549502
761.3157102031543
285.7326438960303
-168.8475970650337
-594.8669654746707
-986.7464030378937
-1340.8263966893596
-1655.2066293931198
-1929.5290175714397
-2164.73793918798
-2362.84111246928
-2526.6840038599
-2659.73846734707
-2765.89872920592
-2849.27884962146
-2914.01180140416
-2964.05566251548
-3003.01375015002
-3033.97497439549
-3059.38294212147
-3080.94496864544
-3099.58986147722
-3115.47773243309
-3128.0592192958097
-3136.1762524927
-3138.1946454784097
-3132.15996982526
-3115.9670563650097
-3087.5301282864198
-3044.94025037275
-2986.59952169457
-2911.32454554095
-2818.41536710045
-2707.68982147887
-2579.48541804119
-2434.6315021974
-2274.39428037816
-2100.39718788351
-1914.5199454894796
-1718.7819883280797
-1515.2182647738698
-1305.7544867643296
-1092.0858423267198
-875.5627151250467
-657.0890902702217
-437.0408975320197
-215.2124509932947
9.199461442300418
237.5640278603393
471.7305961051823
713.8854119058072
966.3493252701443
1231.3182005082404
1510.5554060338004
1805.0546930066303
2114.69971960684
2437.9521548891503
2771.60200265892
3110.61261947915
3448.08975283266
3775.39672714354
4082.42802849628
4358.0442273135
4590.65887965261
4768.94903746023
4882.6392611868505
4923.28956489597
4885.00445825844
4764.97954132611
4563.81757530259
4285.57373072453
3937.52322152202
3529.6786326202
3074.11364036419
2584.16956252478
2073.62877772834
1555.9340955905102
1043.5189556615303
547.2952038163493
76.32295449053458
-362.3398958850827
-763.6342932857917
-1124.3811222446898
-1443.0892658255598
-1719.7311356975697
-1955.5161388460997
-2152.67766907943
-2314.27638400836
-2444.01213494339
-2546.02999853026
-2624.71026134733
-2684.44588206018
-2729.42060322652
-2763.40296788876
-2789.571086943
-2810.38032038684
-2827.48189427979
-2841.69875602569
-2853.06284258094
-2860.9105282750998
-2864.02406802724
-2860.8020894713
-2849.44130996476
-2828.11332357053
-2795.12454707073
-2749.05103134222
-2688.83997167921
-2613.87029500779
-2523.96942532004
-2419.3894746369
-2300.7517406656398
-2168.9737270468
-2025.1933616276897
-1870.6973448622798
-1706.8518399033896
-1535.0333272984396
-1356.5621956341897
-1172.6407099719697
-984.2901476303997
-792.2789032679947
-597.0391548114337
-398.5810119089067
-196.4223078736467
10.446703376620599
223.5483303884533
444.8393812020613
676.5608975776323
921.0143256584233
1180.2720197725203
1455.8387338447203
1748.2887233246204
2056.9078777263303
2379.37275182877
2711.49966324862
3047.10390163487
3378.0433030999
3694.53968393682
3985.77113435005
4240.57691040036
4448.12115466313
4598.49790204608
4683.32451632205
4696.32207712397
4633.82182938657
4495.12232860549
4282.63998114197
4001.82509255856
3660.84646659115
3270.07522647862
2841.4197656300303
2387.57841500028
1921.2855089449004
1454.6267302014703
998.4849278392093
562.1499534278943
153.0969322219813
-223.0842482834737
-562.6380570526737
-863.5046930241497
-1125.1254963825197
-1348.2226019107097
-1534.5807260720096
-1686.8488980379398
-1808.3628277362598
-1902.9749479262598
-1974.8771195710196
-2028.4094131260097
-2067.86031712038
-2097.27119682343
-2120.25717585743
-2139.85252316372
-2158.3875325958898
-2177.40517757175
-2197.62505746095
-2218.95834561593
-2240.57265160805
-2261.00107123902
-2278.2857541222297
-2290.1449365488097
-2294.15363319805
-2287.92794153664
-2269.2996911096398
-2236.4661072145
-2188.10133630096
-2123.42278410466
-2042.2128847469096
-1944.8022002345997
-1832.0198214157097
-1705.1136771152997
-1565.6435608831896
-1415.3564363998596
-1256.0586076659397
-1089.4966123729098
-917.2529354539287
-740.6575875187967
-560.7130376976947
-378.0310239222257
-192.7851729241037
-4.6877351938204415
187.0016427654173
383.43084023882227
586.0729184156382
796.6065008833343
1016.7577916926803
1248.1024245292303
1491.8271663302903
1748.4563149722703
2017.5566296837003
2297.44820910757
2584.96056156749
2875.2747681946903
3161.88564357109
3436.71004160765
3690.35884550294
3912.57547373116
4092.82434044531
4220.99377215473
4288.16084913217
4287.34962357277
4214.20105001342
4067.46961040695
3849.2748774555703
3565.06544959149
3223.2901821813502
2834.8094259368
2412.11027051027
1968.4085471806004
1516.7264052462003
1069.0337319432404
635.5368807604923
224.1842552453083
-159.5669723688697
-512.7089348189287
-834.3823432969436
-1125.3710340486198
-1387.4873872652897
-1622.9592022952697
-1833.9121352223897
-2022.0354098069697
-2188.50642092686
-2334.16013421561
-2459.77047820363
-2566.29579797182
-2655.02122094176
-2727.59666934319
-2785.98556194813
-2832.34014524252
-2868.82684054044
-2897.43429624101
-2919.7959395656
-2937.04939055522
-2949.74794763579
-2957.83514802248
-2960.68637131954
-2957.21132284394
-2946.00136086939
-2925.49919019791
-2894.16724339335
-2850.63484549564
-2793.8119959631
-2722.96617354873
-2637.76319773482
-2538.27433107229
-2424.9547213253
-2298.6016742845
-2160.2984774645697
-2011.3442249468596
-1853.1718066901096
-1687.2614047526797
-1515.0549292387898
-1337.8693295195396
-1156.8052269622397
-972.6545728537517
-785.8172993792937
-596.2375397795647
-403.3693864938967
-206.1815506316037
-3.2076287497091514
207.3557031538753
427.5042807956573
659.2386940941693
904.3362416814143
1164.0906985660304
1439.0364281542802
1728.6777744612402
2031.2444778400602
2343.49472083144
2660.59084632432
2976.07505787578
3281.97097268378
3569.03141967581
3827.1411791321702
4045.86319764605
4215.09340256849
4325.7715508499205
4370.58338311028
4344.578835261
4245.6288423919
4074.6599211413
3835.64069432336
3535.33279702489
3182.8438139046602
2789.03303288521
2365.83184482445
1925.5473292796003
1480.2130021196504
1041.0361081027902
617.9709342403553
219.4268376656463
-147.8987738167237
-479.0850511075727
-770.9756897986847
-1022.1122427971197
-1232.6291074353896
-1404.1192878061097
-1539.4712493138597
-1642.6706505838097
-1718.5609260113797
-1772.5646149446497
-1810.3767012749497
-1837.6455905161797
-1859.6579068143396
-1881.0427239553296
-1905.5091755137098
-1935.6291436324298
-1972.6744381352296
-2016.5154718294098
-2065.5872937015697
-2116.9309485806198
-2166.32232924331
-2208.5022655347498
-2237.51897216186
-2247.18537212402
-2231.62491197204
-2185.84059004127
-2106.25378009696
-1991.2115706778297
-1841.4208118685697
-1660.1240558152697
-1452.8156327601398
-1226.5194768822796
-988.8787371376117
-747.3098094814337
-508.3384751033367
-277.1408055031557
-57.27888240118431
149.3924262879633
342.6775525558323
523.8806766386433
695.5622376420213
861.2371567582853
1025.0355316726502
1191.3379466311803
1364.3919337479604
1547.9202823028004
1744.7396663478003
1956.4105116985504
2182.93865839822
2422.55162809297
2671.5733054389602
2924.41439651515
3173.68793426372
3410.4583393609
3624.6332109211103
3805.4972880312203
3942.36727892227
4025.3225734911202
4045.94804397603
3998.0166370811403
3878.04205352827
3685.64086748858
3423.65916567875
3098.04567732754
2717.48478572052
2292.82812491796
1836.3828323570704
1361.1294951624402
879.9481122849663
404.9224441091923
-53.22382165916451
-485.5260262422727
-885.0027542552587
-1246.7193117557897
-1567.7218306143998
-1846.8803386923396
-2084.67646221407
-2282.96174700611
-2444.70150692572
-2573.71043951512
-2674.38095927615
-2751.40591590534
-2809.50348173272
-2853.15650280125
-2886.37823279039
-2912.51630787238
-2934.10904229169
-2952.8059242312397
-2969.35510740086
-2983.65163831643
-2994.83503085979
-3001.42195172188
-3001.46087296423
-2992.7009329255197
-2972.77042444441
-2939.35857615118
-2890.39166096957
-2824.19227476575
-2739.6085197122197
-2636.1011805714797
-2513.7843557011597
-2373.42463772699
-2216.4078672938
-2044.6775226029197
-1860.6424456946897
-1667.0515550624198
-1466.8366587198398
-1262.9273298308897
-1058.0452216948297
-854.4885731767916
-653.9193495178357
-457.1664436014477
-264.0593284190607
-73.30904385260531
117.54126561809129
312.0698122805353
514.8092134037893
730.9427327045643
965.8573352081803
1224.5575134820103
1510.9570831672104
1827.0914459003702
2172.34375839511
2542.84083560436
2931.19678626443
3326.73065323715
3716.16717729617
4084.69007966647
4417.13558577033
4699.13116715882
4918.04255882063
5063.64984991789
5128.5594855448
5108.43750897154
5002.13738973538
4811.72455139946
4542.36106807761
4202.0221179011405
3801.03875207198
3351.4871426723303
2866.47116732825
2359.36652206078
1843.1031500367403
1329.5549744962602
829.0851830480613
350.2708770175823
-100.19270479218872
-517.4323358368857
-898.2257638286217
-1240.7723110722898
-1544.4526427998796
-1809.6122172012397
-2037.3883246887397
-2229.58463393669
-2388.5803634763497
-2517.2515062808898
-2618.88223963074
-2697.05080519454
-2755.48394925618
-2797.88507694063
-2827.7481310468197
-2848.1726699729697
-2861.69832473604
-2870.17643445835
-2874.69307468775
-2875.55339664229
-2872.33040976156
-2863.97131189812
-2848.9470607285098
-2825.43005274452
-2791.4865248749297
-2745.26882947503
-2685.18798334627
-2610.04577457778
-2519.11378735506
-2412.15914571248
-2289.42596318698
-2151.58584900859
-1999.6691928689197
-1834.9820415823096
-1659.0096403229998
-1473.3117341719396
-1279.4184462550597
-1078.7321399942598
-872.4352023162467
-661.4020150536057
-446.1151182351547
-226.5908340252897
-2.3272967712509516
227.7078626213453
465.0340051284563
711.5449880700863
969.3198361799253
1240.3595717420403
1526.2661224642702
1827.8878241379302
2144.96040299525
2475.77461215008
2816.90311898667
3163.02259120319
3506.8691845601
3839.35921001129
4149.89277002364
4426.8417752609
4658.20413524039
4832.3821094829
4939.01807063754
4969.8015793309205
4919.15605777506
4784.7258217915105
4567.611434863
4272.33462635103
3906.54469856089
3480.5039630413103
3006.41182493486
2497.64373277522
1967.9871650721602
1430.9486557352202
899.1847306527953
384.0828738021703
-104.50559759914071
-558.3993146103157
-971.1229233244777
-1337.8916774636798
-1655.5934053677397
-1922.8148891590397
-2139.94714580816
-2309.32998025168
-2435.25291333067
-2523.60587248472
-2581.21137611428
-2615.1125408654198
-2632.03572722744
-2638.03539292607
-2638.24417848155
-2636.69245059699
-2636.19886888646
-2638.33725300968
-2643.48000793538
-2650.9129042841
-2659.01065734543
-2665.45874528792
-2667.5038523007697
-2662.21396432342
-2646.72927407443
-2618.4846969963
-2575.38608455539
-2515.9287531761
-2439.25701264243
-2345.17167956717
-2234.0951707225
-2107.0021154492897
-1965.3226969897296
-1810.8269555143997
-1645.4973769124297
-1471.3941064434498
-1290.5159635837297
-1104.6623781198898
-915.3026825547297
-723.4571591325117
-529.5931248523217
-333.5437520499637
-134.4632583950037
69.16652229993929
279.4664894600143
499.0211682615393
730.6685761583393
977.2210146690603
1241.1240439769804
1524.0709065908602
1826.6008943711304
2147.71595241699
2484.55107044022
2832.13714781217
3183.29843511158
3528.72253682396
3857.22783279121
4156.2358976471105
4412.43821570272
4612.62536556544
4744.6202200333
4798.22906354321
4766.10766290033
4644.44125102209
4433.35629791858
4137.0127230723
3763.36326015049
3323.6061581865
2831.39372152932
2301.8883204899703
1750.7722273924203
1193.3142531805704
643.5779675668613
113.82714506448629
-385.8498331181157
-847.7042685440837
-1266.3088815758097
-1638.4001401900198
-1962.6325475854997
-2239.29682135443
-2470.04307104208
-2657.6277681298297
-2805.68063961588
-2918.47652563418
-3000.6980965480197
-3057.1839185214
-3092.66800724534
-3111.52464346164
-3117.53492104219
-3113.694381108
-3102.08393228662
-3083.82397142853
-3059.1226241721697
-3027.41794469333
-2987.60439449309
-2938.3226802585
-2878.2774262326298
-2806.53465217969
-2722.7449022196
-2627.2393555228
-2520.96454025437
-2405.27180766695
-2281.64443748394
-2151.47255622108
-2015.9495461186798
-1876.0948779556497
-1732.8469577617998
-1587.1457931068996
-1439.9373962219997
-1292.0544432119098
-1143.9787552961498
-995.5826721312027
-845.9912381180737
-693.6248447592047
-536.3538287065517
-371.6640685731467
-196.7924475994517
-8.843432190367011
195.0897862809183
417.7793857086053
661.6784801674203
928.6932259829163
1219.9156820121402
1535.3308594418004
1873.5209603927904
2231.39718152642
2603.99243263412
2984.34791736365
3363.5255981967302
3730.77630564188
4073.88285486218
4379.67903100462
4634.7294143504705
4826.14219619461
4942.46509805138
4974.58373111344
4916.52027982084
4766.03118815748
4524.9226107390305
4199.03633715729
3797.90540777046
3334.12639239823
2822.52572445884
2279.20991225767
1720.5957208739203
1162.5134527103403
619.4547603210023
104.00347552924849
-373.5405680502847
-805.3537673386847
-1186.1207250727798
-1512.9427498484797
-1785.1645181157496
-2004.1509691756696
-2173.02897210918
-2296.39433049363
-2379.9800251428
-2430.2868080622397
-2454.18841603567
-2458.53292853661
-2449.76394592677
-2433.58241820084
-2414.66725323182
-2396.4716752168997
-2381.11015139839
-2369.34446119116
-2360.6665460261697
-2353.46550326265
-2345.26221883562
-2332.99322342388
-2313.31910768614
-2282.92813289906
-2238.80969477181
-2178.48047298009
-2100.1526091819
-2002.8390110620896
-1886.3962708247298
-1751.5080449508696
-1599.6107993293697
-1432.7639175090096
-1253.4703495428796
-1064.4594941187997
-868.4474513952297
-667.8909549161907
-464.75118609684273
-260.2835402135437
-54.87036156655601
152.0852098515723
362.1877268161363
577.9882635467073
802.8258222350553
1040.5667599897004
1295.2431508079103
1570.6007135734703
1869.5794415467703
2193.76456689323
2542.86219624846
2914.2672356653
3302.79337028676
3700.6222620100903
4097.49134482493
4481.07829077356
4837.50422522041
5151.90577882726
5409.08348558275
5594.2693838983205
5694.0462635701
5697.39108011779
5596.73469064941
5388.87196406958
5075.54240976308
4663.5337152988
4164.2446237534405
3592.7791959310703
2966.76022078329
2305.05984578718
1626.5849417280103
949.2089947603193
288.9211500507353
-340.7629907728087
-929.1198264740477
-1468.2893057358597
-1953.1449396113996
-2381.0191249911
-2751.34590092076
-3065.2797248317597
-3325.33428715316
-3535.0668418545797
-3698.8177571456
-3821.50019226961
-3908.42041667306
-3965.10303053196
-3997.1025234999697
-4009.79696329305
-4008.1714451499497
-3996.60438171423
-3978.67176398083
-3956.98891979703
-3933.11348119482
-3907.5270817153
-3879.6979194208197
-3848.2156232326797
-3810.98787483168
-3765.48385481814
-3708.9987372125397
-3638.90778948853
-3552.88516647493
-3449.07413950903
-3326.20496101785
-3183.66215261663
-3021.50477227662
-2840.44309290884
-2641.7757930480598
-2427.29405102712
-2199.16154414582
-1959.7804846915797
-1711.6529347864198
-1457.2431568554498
-1198.8413135102296
-938.4262541147096
-677.5286698219677
-417.1026582052937
-157.4204790904767
101.99037314905988
362.3508750133333
625.5665514750733
894.0953791013953
1170.7495942403202
1458.4337892960602
1759.8247775512602
2077.00499596377
2411.0687776824802
2761.72918193023
3126.96007524617
3502.71187469779
3882.74060834793
4258.58778906188
4619.74118165137
4953.99448582642
5248.00857211772
5488.05884277791
5660.93080365761
5754.89679988198
5760.67770978503
5672.27903868889
5487.59951410723
5208.73719624407
4841.95431220765
4397.30201880763
3887.9461054971102
3329.26885657043
2737.84653877955
2130.41249452157
1522.9083072349504
929.7020439638363
363.0224822112963
-167.3724049171467
-654.3041867341857
-1093.0966656103997
-1481.3646252451297
-1818.7230829926898
-2106.4621700264597
-2347.2175180691197
-2544.6495617351798
-2703.12930838652
-2827.41737328578
-2922.3262101177197
-2992.3824123
-3041.5526097548
-3073.12361933961
-3089.78649783012
-3093.86013104627
-3087.48279471967
-3072.63191562212
-3050.9909096789397
-3023.7797287887
-2991.63382696553
-2954.55848615394
-2911.9577436701898
-2862.7254170667898
-2805.38187206654
-2738.2386702764697
-2659.57165267195
-2567.78520002124
-2461.55494842806
-2339.93922235233
-2202.45307244297
-2049.1059436171
-1880.4093278650696
-1697.3584683883596
-1501.3867098877697
-1294.2892725003196
-1078.1152062249696
-855.0302993179617
-627.1586806530207
-396.4142823409017
-164.3338707735617
68.077199472197
300.4736791872753
533.2561721166443
767.5937941485063
1005.3671752691002
1249.0241430097203
1501.3507565512202
1765.1686843032903
2042.9757149933703
2336.55216534732
2646.56173972345
2972.1766555542
3310.7547956551803
3657.59799798062
4005.82684939394
4346.41206706073
4668.3977989699
4959.33667902593
5205.93451873245
5394.87493734236
5513.76237166883
5552.09478237311
5502.16282006935
5359.7718792941305
5124.6982052764
4800.81986528388
4395.90460256133
3921.08252618745
3390.07123897159
2818.24496374399
2221.64772836568
1616.0491437680103
1016.1296034040103
434.8563574831623
-116.92284212340272
-630.6755120579497
-1100.2027551910796
-1521.5285935598797
-1892.7100768785897
-2213.60856232159
-2485.65147244722
-2711.6030562139
-2895.3487699552898
-3041.68364798534
-3156.08665126008
-3244.46314685408
-3312.84694054871
-3367.06857390524
-3412.41054550811
-3453.27783977151
-3492.91415006248
-3533.1929538619497
-3574.50912069759
-3615.78868711029
-3654.62075787484
-3687.50260805981
-3710.18278220981
-3718.08146716262
-3706.75552219018
-3672.36408073133
-3612.08991120453
-3524.47741505721
-3409.6506938429598
-3269.37665511118
-3106.9449327687
-2926.85207807653
-2734.3126153459298
-2534.67891596376
-2332.89599274308
-2133.08742530171
-1938.2866184605598
-1750.2885207020297
-1569.6185642854298
-1395.6119681388898
-1226.5476033560396
-1059.7905872686297
-891.9835466817317
-719.3363080109957
-537.9649951110877
-344.1841351697597
-134.7081296281677
93.22659740114528
341.7900002367773
612.5063846348783
906.1953684149333
1222.8883152477404
1561.7124735595103
1920.7452382247302
2296.85115601706
2685.5227271474
3080.75285841496
3474.97204966592
3859.08523480053
4222.63960108962
4554.1451292337
4841.55540314297
5072.89782837154
5237.01952946594
5324.3905377336505
5327.88430253893
5243.44315469636
5070.53891908395
4812.3583286063
4475.67747535119
4070.4347118454
3609.05692740804
3105.62520324173
2574.97504844671
2031.8205642001403
1489.9801130255803
961.7636596811843
457.5566303935603
-14.394521249640814
-448.0166165156187
-839.3045218504367
-1186.1268751402597
-1487.9926448824797
-1745.8163045678898
-1961.6993961632197
-2138.72707176208
-2280.76885088133
-2392.274119734
-2478.05670940315
-2543.06500731125
-2592.13854979287
-2629.7600496874797
-2659.8197008999
-2685.4145700887498
-2708.70686257492
-2730.85739666526
-2752.03960745862
-2771.53140461765
-2787.87467107959
-2799.0821907348
-2802.86482982459
-2796.85242804791
-2778.78780577027
-2746.68084329063
-2698.91514378417
-2634.30295305663
-2552.08922348357
-2451.91256830534
-2333.7343003462997
-2197.74753714285
-2044.28061258278
-1873.7127790157497
-1686.4205828355898
-1482.7656998816497
-1263.1228580591296
-1027.9383632667798
-777.8065762137948
-513.5485022710787
-236.2745384479857
52.58515344827619
351.2986345724213
657.9115770720823
970.3774271027384
1286.6916335182802
1604.9772040946602
1923.4944475383204
2240.56421327049
2554.4005198145
2862.87471009748
3163.26172691487
3452.00363192161
3724.49385555376
3974.91155648165
4196.19089557021
4380.20396969655
4518.17812851526
4601.32356284005
4621.61312669674
4572.61609833148
4450.26521236754
4253.44655006786
3984.33283328978
3648.4195948085103
3254.26336169161
2812.95772825941
2337.4144595359303
1841.5364470153702
1339.3717714263503
844.3264364562373
368.49465338931327
-77.85715789310801
-486.6396303321997
-852.1271263018277
-1170.9957082191197
-1442.2317752735896
-1666.9337977248897
-1848.0304648416698
-1989.9367819056997
-2098.16559777739
-2178.91044637559
-2238.61987435929
-2283.58797959227
-2319.58406534497
-2351.53885526517
-2383.3015398644698
-2417.48075710622
-2455.3786945909
-2497.01873320613
-2541.2573498211
-2585.96519151967
-2628.25887642749
-2664.76093532592
-2691.8641123143398
-2705.98214343669
-2703.77682464363
-2682.35360249898
-2639.41700238749
-2573.37911586425
-2483.41996145144
-2369.50324023136
-2232.35184186487
-2073.38702677031
-1894.6359097982197
-1698.6108557977198
-1488.1619637187098
-1266.3059609114498
-1036.0399420441697
-800.1497613564827
-561.0233673078667
-320.4831496993307
-79.65385618159571
161.11938162718928
402.2922425569763
645.0740293718693
891.3060997442603
1143.2630138543502
1403.3811545347503
1673.9273306252403
1956.6238991784203
2252.25289454615
2560.2715949593203
2878.47813608056
3202.7650852575302
3526.99627950307
3843.03888508524
4140.97470646942
4409.50252491793
4636.52932560462
4809.92874786465
4918.4148043694
4952.44521755051
4905.04901710921
4772.4767771561
4554.59355948393
4254.96691945433
3880.6421930975603
3441.63641554302
2950.2128290301403
2420.02383490581
1865.2294902741303
1299.6955820074902
736.3471974427373
186.7177941423253
-339.2978755111257
-833.5141618265988
-1289.4301155590797
-1702.2307435289297
-2068.87314525485
-2388.18480179556
-2660.85092131651
-2889.230060623
-3076.99739988985
-3228.6365195130597
-3348.86127002978
-3442.13411399994
-3512.3959511898397
-3562.94601192449
-3596.3618189616
-3614.47443673167
-3618.48478257616
-3609.23669545602
-3587.54048227541
-3554.3646547887797
-3510.79249918116
-3457.8249124409
-3396.1856855406
-3326.21301039115
-3247.84446385433
-3160.67581360608
-3064.0670193022597
-2957.27007311313
-2839.55882450457
-2710.34445614999
-2569.26313653136
-2416.22849012174
-2251.45067252874
-2075.43037646144
-1888.9347291524698
-1692.9564003144396
-1488.6541391615697
-1277.2725274696297
-1060.0403886531697
-838.0522037167617
-612.1413285643537
-382.7557364059447
-149.8503684221187
87.18621705200138
329.5534432060693
578.9933198313853
837.6677436317583
1107.9584527873603
1392.1985055374303
1692.3466356866602
2009.6178303332504
2344.09044953061
2694.32224504511
3057.02064230441
3426.81852448463
3796.20082226276
4155.61274216096
4493.76467697154
4798.13438446107
5055.6483973699005
5253.49998908997
5380.03806911509
5425.64675678082
5383.53062249541
5250.32476079179
5026.45996844135
4716.23314551143
4327.5652361653
3871.4699880147
3361.29691330267
2811.84269546347
2238.4398452829
1656.1233560453602
1078.9475495266204
519.4897493459594
-11.45259298654221
-504.9875408949377
-954.1129945423037
-1353.6117195001098
-1699.9146346067098
-1990.9804140967897
-2226.22016578076
-2406.47376274582
-2534.02165679428
-2612.5977720802
-2647.36298199383
-2644.80440730699
-2612.53614918413
-2558.98571707964
-2492.95503891848
-2423.05626691269
-2357.0660567079
-2301.31205848008
-2260.22903249925
-2236.1471540397997
-2229.2745695359
-2237.81886889833
-2258.241593332
-2285.6521570669
-2314.29596201378
-2338.0575881744
-2350.9379554819798
-2347.507692386
-2323.31426534717
-2275.17921655507
-2201.3379713589197
-2101.42351296639
-1976.3266591063398
-1827.9754973994698
-1659.0752417474696
-1472.8403837833398
-1272.7387608795498
-1062.2577162200696
-844.6956321366197
-622.9776515370817
-399.4948156978017
-175.9701105381507
46.641247537109194
268.2088540608333
489.4338577064413
711.7990942417233
937.4565157349933
1169.0441155775302
1409.4266972602602
1661.3664988727203
1927.1431927941103
2208.14891993644
2504.4870411073102
2814.6083493598003
3135.02231587313
3460.1207597663
3782.14841791067
4091.35006329093
4376.31478163362
4624.52126154764
4823.0637404913405
4959.51175144399
5022.83304955896
5004.29063151923
4898.21577421122
4702.56536081383
4419.19524691074
4053.81732327007
3615.6477899300303
3116.79067214189
2571.42870082429
1994.9100141626902
1402.8241563467802
810.1547963219923
230.5780267071013
-324.0520398083187
-844.0171853168767
-1321.8599968733697
-1752.3494285687098
-2132.3301131735398
-2460.50580553306
-2737.20095481402
-2964.12706656953
-3144.16466244335
-3281.1605296535
-3379.7306653156397
-3445.05508635679
-3482.65460558541
-3498.14716776596
-3496.98715750052
-3484.1968350009597
-3464.10794610851
-3440.14079264194
-3414.64988316145
-3388.85508662776
-3362.8619043600997
-3335.76486224056
-3305.82320014027
-3270.69205932462
-3227.6873416774797
-3174.06244733137
-3107.27794503721
-3025.24654148592
-2926.53639881742
-2810.51903362042
-2677.4520263849
-2528.48914547159
-2365.61501878057
-2191.51102013895
-2009.3654372142298
-1822.6373565486197
-1634.7792028299398
-1448.9273406865198
-1267.5784726289996
-1092.2744209547398
-923.3213582991307
-759.5759029782657
-598.3439987301227
-435.4522598562377
-265.5236070776607
-82.42885880366661
120.10925968694828
347.7615891945533
604.7965346516163
893.4703532563963
1213.7651695368802
1563.4550997635004
1938.3523789163903
2332.57562980278
2738.7621554687503
3148.2305847798
3551.13713869383
3936.67025658494
4293.31867079175
4609.23622573437
4872.71311313833
5072.74747658675
5199.69154312254
5245.92073561921
5206.4506771789
5079.4202711323005
4866.37314582384
4572.29480616608
4205.39004044208
3776.61334581132
3298.99416406712
2786.82630253277
2254.81114074144
1717.2467711688503
1187.3364365983502
676.6599524426923
194.8241311731723
-250.7134522976987
-654.6708275721207
-1013.8541712536397
-1326.9933990339996
-1594.5291604562196
-1818.3730779749696
-2001.6575539671096
-2148.47946410777
-2263.63139662211
-2352.31498642168
-2419.83988654319
-2471.32195784515
-2511.40018654896
-2543.99114184998
-2572.09664681103
-2597.67798545966
-2621.6057270032197
-2643.68781002779
-2662.77266333651
-2676.91937115232
-2683.62219011771
-2680.07090873199
-2663.42310545091
-2631.06380372762
-2580.83140108292
-2511.19121442829
-2421.3418884481
-2311.24903854702
-2181.61166342079
-2033.7765985165297
-1869.6211513588496
-1691.4191607234598
-1501.6953663836996
-1303.0687985196596
-1098.0899172001398
-889.0802482672517
-677.9827762112097
-466.2290869455817
-254.6289740525857
-43.29056251008951
168.4179353091403
381.8503390291513
598.9917601422973
822.2834513600013
1054.3652166270704
1297.7507830902302
1554.4608291513603
1825.6460664806102
2111.23674050121
2409.65114627447
2717.5891505507902
3029.9338946274
3339.78317604951
3638.62679607582
3916.67643560733
4163.340439023
4367.82013913054
4519.78860312521
4610.09412784879
4631.41205713544
4578.75915231462
4449.79314797281
4244.86727969694
3966.92321180827
3621.4021536363703
3216.2557867771
2761.90309274324
2270.901731513
1757.2605442549102
1235.5118718583703
719.7416695463872
222.7434711279973
-244.6175469685777
-673.8098743945247
-1058.8236128131098
-1396.1717577095997
-1684.7468153316397
-1925.5764972067097
-2121.5128526232897
-2276.87652187124
-2397.0694793455
-2488.1664671641497
-2556.4973082882198
-2608.24002148845
-2649.05170968734
-2683.76145984994
-2716.1399066754198
-2748.75398601041
-2782.91235597438
-2818.70059429463
-2855.0973851156
-2890.15734140176
-2921.24215157253
-2945.27952504011
-2959.03025068429
-2959.3457442774597
-2943.39877132513
-2908.87023820311
-2854.0797947278697
-2778.0574582557
-2680.56145663871
-2562.04960271103
-2423.6108588491197
-2266.86469447288
-2093.83674737119
-1906.8190617045598
-1708.2243729338097
-1500.4445239739896
-1285.7193621944598
-1066.0178064952597
-842.9321842406147
-617.5886282598257
-390.5765907777747
-161.9000996619807
69.04581989714198
303.4663834650773
543.1119334008803
790.1594282726793
1047.0195892012002
1316.0693299174702
1599.3199284137902
1898.0428004136404
2212.38459194391
2541.00771311964
2880.79226216808
3226.6359954447003
3571.3905132897603
3905.96721833523
4219.63327098658
4500.49917774292
4736.17896830857
4914.58263948678
5024.77947776358
5057.85156365753
5007.64400418423
4871.32038635546
4649.65394942016
4347.02171975364
3971.10721681969
3532.34945048081
3043.20316673697
2517.29732713552
1968.5882566915902
1410.5954130229204
855.7838818841543
315.1268493374583
-202.1453445169327
-688.6205321600337
-1138.6303910171796
-1548.0696047283298
-1914.1643721389896
-2235.24447166842
-2510.55578640129
-2740.12776005543
-2924.69472648993
-3065.66346756232
-3165.1163754210297
-3225.83718336997
-3251.34540176364
-3245.92558408488
-3214.63650388804
-3163.28569123765
-3098.34050579896
-3026.68744125028
-2955.12229421205
-2889.59564981351
-2834.4470778085797
-2791.88099062739
-2761.7897799982497
-2741.9112761176398
-2728.25233055329
-2715.67817591761
-2698.5651895360697
-2671.42794420337
-2629.44120298768
-2568.8056756176998
-2486.95071655696
-2382.59394922186
-2255.68319265513
-2107.24628726517
-1939.1755376911797
-1753.9744273028098
-1554.4918825073296
-1343.6637450459098
-1124.2754739345396
-898.7559944641987
-669.0100229860907
-436.2933119259797
-201.1318617365277
36.71281432220269
278.2240675589593
525.0448660740033
779.3209789465153
1043.4752575892103
1319.9211110997203
1610.7254120630303
1917.2354550100004
2239.69460848087
2576.8826185691
2925.82216278578
3281.59104395337
3637.27195527386
3984.06190568391
4311.55206729934
4608.17688777348
4861.82029436042
5060.55361874689
5193.45823605078
5251.45930766923
5228.07985249804
5120.02606664037
4927.5321658616
4654.42023174499
4307.8661786674
3897.90208212149
3436.71757538053
2937.84306603858
2415.30421028111
1882.8311445844804
1353.1908743601302
837.6900208693513
345.8684295004223
-114.62583793883472
-538.0160072173977
-920.2805710794566
-1258.9896412064297
-1553.1291665356198
-1802.9360910031196
-2009.7569868781598
-2175.92928166309
-2304.67125463998
-2399.96246777923
-2466.39887759835
-2509.01171120947
-2533.04731768597
-2543.71627330804
-2545.92925108928
-2544.04296680889
-2541.6415696518497
-2541.3744057978997
-2544.86209891103
-2552.67530383952
-2564.38392302902
-2578.66624078616
-2593.46167066935
-2606.1508381816498
-2613.74742865677
-2613.08703207112
-2601.00495340012
-2574.50381909227
-2530.91336467321
-2468.03908775999
-2384.29065076083
-2278.78158261203
-2151.39852453844
-2002.8422955016697
-1834.6405341619197
-1649.1279789901796
-1449.3867894517098
-1239.1323662722298
-1022.5242084314798
-803.8843975748747
-587.3173434964227
-376.24067788730173
-172.8717543603007
22.225283377465388
210.3825233208473
394.7470424218313
579.8749466804034
771.1116725356013
973.8988466530074
1193.1025039837002
1432.4052106506804
1693.7825378024304
1977.0828022624803
2279.73383044683
2596.6037153616203
2920.03929312808
3240.0979479522603
3544.97851805991
3821.64426428301
4056.61250919175
4236.86331001208
4350.79709619691
4389.15221948539
4345.7838357561905
4218.21115095762
4007.86389544149
3719.99913411323
3363.30421804424
2949.23741611245
2491.18316341865
2003.5173731693003
1500.6848053889303
996.3783688977143
502.8841024799723
30.626753597978887
-412.0744045631747
-819.0530333867937
-1186.1832266346496
-1511.1620235601397
-1793.2464716869797
-2032.9939906211398
-2232.03493654792
-2392.88499296696
-2518.78754535414
-2613.5662790676497
-2681.46854758238
-2726.98918521821
-2754.67502691983
-2768.91617441771
-2773.73299468008
-2772.57158420573
-2768.12554866201
-2762.2072633295097
-2755.69021465983
-2748.53091953761
-2739.86398364573
-2728.1576811634
-2711.41615223827
-2687.4089240909298
-2653.9019878537
-2608.86767042973
-2550.65993322925
-2478.14545591262
-2390.7811568573798
-2288.63418630109
-2172.3479148451297
-2043.0626269645297
-1902.3033551689598
-1751.8476122925597
-1593.5822235141497
-1429.3559920024197
-1260.8354964570797
-1089.3721468165897
-915.8878595739247
-740.7854726892486
-563.8892365826478
-384.4187399534307
-200.9978939712817
-11.702588626971313
185.8473473795423
394.3480178842363
616.6208802922823
855.3699535205923
1112.8891478033504
1390.7301743426303
1689.3509932851202
2007.7735206056202
2343.2851899707302
2691.22202028613
3044.87047880861
3395.5186352107303
3732.67567177645
4044.46767472776
4318.20534776144
4541.09990136992
4701.07804554365
4787.62737043101
4792.59929250483
4710.90724462869
4541.07718963561
4285.61939317846
3951.1588914695
3548.20978000362
3090.52433026111
2594.10039919483
2076.0224216703
1553.2928948938702
1041.7826561446102
555.4012926372463
105.53241054614328
-299.2747572462757
-653.3926382331687
-954.0275265558097
-1201.0029125973897
-1396.4511245044398
-1544.4388593037497
-1650.5445938530497
-1721.4035838634798
-1764.2376737414697
-1786.3908659875797
-1794.8948621755496
-1796.0890460597498
-1795.3152782968598
-1796.6998025750297
-1803.0257516841298
-1815.6938941167598
-1834.7674420187398
-1859.0964638894798
-1886.5138135011198
-1914.0862547632396
-1938.3977407873397
-1955.8413763354897
-1962.8994505289697
-1956.3943216646696
-1933.6978827859698
-1892.8916871103897
-1832.8702506157897
-1753.3797110179296
-1654.9887993690998
-1538.9983017989898
-1407.3019374274197
-1262.2123378884396
-1106.2643417408797
-942.0080325843358
-771.8050602824158
-597.6416666285127
-420.9706673385537
-242.5932503010337
-62.589156720839405
119.69857722514628
305.6183568997193
497.0977044193973
696.4595872423963
906.1688846465213
1128.5176161871102
1365.2656893947903
1617.2642834217604
1884.0967880822002
2163.77125314733
2452.49417841591
2744.55591088313
3032.35793430975
3306.60536169378
3556.67565766157
3771.15903215081
3938.5468217410603
4048.0228911970003
4090.29191398759
4058.3610614663503
3948.18509784041
3759.09427258717
3493.94815627735
3158.9930608590603
2763.44165560057
2318.83005169829
1838.2300851494003
1335.4037927639104
823.9859132442193
316.7670252192453
-174.8731879724507
-641.3584989607517
-1075.1327519077797
-1470.7170668152496
-1824.6376337653196
-2135.26089811797
-2402.57339196313
-2627.9381899984
-2813.8489689102
-2963.68876801036
-3081.48876884394
-3171.67752695243
-3238.81658801999
-3287.33065562276
-3321.24838247837
-3343.96924277709
-3358.07089194199
-3365.17556341488
-3365.89886021017
-3359.9035412704798
-3346.0728647575597
-3322.79795893249
-3288.3320264138897
-3241.12245625577
-3180.03818359114
-3104.4611842743197
-3014.2636084261
-2909.72378109214
-2791.43351302366
-2660.22054605043
-2517.08586752578
-2363.15058179028
-2199.60981097409
-2027.6927943762396
-1848.6268403041297
-1663.5997380562596
-1473.7145911334997
-1279.9342118355396
-1083.0164622279797
-883.4450099566847
-681.3624516861817
-476.5137974502657
-268.2068393979757
-55.29530218874521
163.8064831628723
391.06598948609627
628.7225799630683
879.1219900413613
1144.4981909014102
1426.7094527207403
1726.9392737372903
2045.3799315949602
2380.9243677375803
2730.89605585418
3090.84628265401
3454.44784762216
3813.51449964847
4158.17269015309
4477.20383124098
4758.56148162088
4990.04850536071
5160.11442650299
5258.70634663693
5278.0847958370305
5213.5077329408
5063.69656173776
4831.02405667964
4521.39949797983
4143.86577310926
3709.95897029857
3232.906459719
2726.75304222783
2205.5069155904403
1682.3884817954704
1169.2448734504703
676.1626482728033
211.2789600253593
-219.2336890254517
-611.0517721665037
-961.5062231957717
-1269.3585524760397
-1534.5845345692396
-1758.1865824925196
-1942.0414732502798
-2088.77817213164
-2201.67045250906
-2284.52233004433
-2341.52602735246
-2377.08470363238
-2395.60861484848
-2401.30258452173
-2397.96204596049
-2388.79186608465
-2376.26320330812
-2362.02560465624
-2346.8853515811197
-2330.84659466824
-2313.20208813401
-2292.6627907256498
-2267.52048816286
-2235.8349155053997
-2195.62994629151
-2145.07938708329
-2082.66395683595
-2007.2857637320396
-1918.3329836404996
-1815.6950724897597
-1699.7367549520397
-1571.2427609495096
-1431.3422882082598
-1281.4177462824798
-1123.0025652120796
-957.6747822207917
-786.9508514212417
-612.1805361733437
-434.4449819773257
-254.46409989821973
-72.52074859955472
111.59220380095728
298.5953505763683
489.7059489218633
686.5684517716403
891.1240149399783
1105.4147159940703
1331.3231933642803
1570.2588739687203
1822.8131093827203
2088.4131242040103
2365.0112855055
2648.85028490463
2934.34104399617
3214.08036722613
3479.02665207152
3718.84452837422
3922.41645511769
4078.49943366179
4176.48403798479
4207.19485650679
4163.65547290504
4041.7304594738303
3840.5613921708
3562.73972597829
3214.19860702829
2803.84264450743
2342.96159710288
1844.4932957317303
1322.2146010223803
789.9435679091054
260.8287812711243
-253.21507148756672
-741.8895925421797
-1196.7104897284496
-1611.0653429839397
-1980.2032881842097
-2301.1938903741398
-2572.84053971317
-2795.53721517555
-2971.08800876083
-3102.51040015843
-3193.82648480057
-3249.8365928622798
-3275.87051406109
-3277.51850459626
-3260.35195009476
-3229.64974256308
-3190.14922244805
-3145.83736278886
-3099.79221270157
-3054.08267670706
-3009.735652933
-2966.77673436826
-2924.34169423788
-2880.84582543941
-2834.1923273501598
-2782.00025540044
-2721.834307841
-2651.41949308219
-2568.82356485343
-2472.59294559377
-2361.83545401743
-2236.2513941672
-2096.11911236123
-1942.2426341477096
-1775.8693539994897
-1598.5854330874397
-1412.1957538530996
-1218.5939703111897
-1019.6270694814597
-816.9589713243276
-611.9394750032988
-405.4877507223647
-198.0008201881277
10.704735790813928
221.41248026028128
435.4814598754743
654.7679910055213
881.4835796716103
1117.9840199320804
1366.4947486113704
1628.7881546524302
1905.8362929636103
2197.46545236234
2502.0406386372
2816.21197171109
3134.75791916229
3450.5590614584003
3754.73293798282
4036.95349382534
4285.96018522705
4490.23209141558
4638.77303745647
4721.93519763212
4732.20078816966
4664.83964198853
4518.3666064524405
4294.74279399301
3999.2972670908503
3640.38179004495
3228.80245629968
2777.09311160709
2298.70540680871
1807.1910155054104
1315.4469107698503
835.0905434635773
376.0209744753493
-53.81453925966641
-448.4789013158677
-803.9836310342597
-1118.1555128544196
-1390.4625273394997
-1621.8156944519897
-1814.3544853163896
-1971.2189893328198
-2096.30784808677
-2194.01888107946
-2268.97374315626
-2325.73571546912
-2368.53591899205
-2401.02751692904
-2426.0887515425097
-2445.6918335320497
-2460.84764952595
-2471.62866688829
-2477.26460787729
-2476.29854201262
-2466.78668342871
-2446.52378384883
-2413.27671205157
-2365.0089017222
-2300.0769216088697
-2217.38087231983
-2116.45558739122
-1997.4995235840097
-1861.3492837068998
-1709.4128162709396
-1543.5713694976796
-1366.0579748626797
-1179.3219798243297
-985.8859443080597
-788.1938155542467
-588.4507332589977
-388.4649932842497
-189.5085523367257
7.789363888663279
203.5040815944683
398.42373667807027
593.9975934525393
792.2197639994483
995.4466670282274
1206.1532663987803
1426.6402027312304
1658.7078738156504
1903.3157156960503
2160.24866856549
2427.81894047683
2702.6366075141
2979.48443749106
3251.33103617879
3509.5108553089
3744.08518686186
3944.37418553299
4099.6246016447
4199.76112351764
4236.15903091355
4202.36490180532
4094.68547637624
3912.57269236479
3658.75551218625
3339.10245987078
2962.23602161073
2538.94898985217
2081.48948809418
1602.7903269942303
1115.7186575724504
632.4119180320723
163.7477511587073
-281.0296737347577
-694.5299872630947
-1071.3032994952198
-1407.8206402656697
-1702.3763954816297
-1954.9339865164898
-2166.92653759338
-2341.02070631054
-2480.8533941678897
-2590.75075919705
-2675.43636592244
-2739.73626183543
-2788.29428109428
-2825.31495721254
-2854.34996735403
-2878.13941107372
-2898.51507781795
-2916.36891016729
-2931.68510476298
-2943.6300936511498
-2950.69076692368
-2950.8464925540097
-2941.75748455559
-2920.95435822291
-2886.0198500411097
-2834.75728523538
-2765.33862620727
-2676.42432331357
-2567.25219086124
-2437.6989186841697
-2288.32025415058
-2120.3712596914297
-1935.8002614114696
-1737.2086035752998
-1527.7719029324896
-1311.1193397734096
-1091.1683066343696
-871.9158025979077
-657.1897225811217
-450.3625779728877
-254.03594422460372
-69.71802224861362
102.46995831193918
264.0170236320963
418.1324651078363
569.6990458028273
725.0305916276953
891.4071556677033
1076.3745064334103
1286.8182967419702
1527.8951340985502
1802.0240999177504
2108.19799274251
2441.73972270287
2794.3952596027702
3154.5888784734
3507.85226184431
3837.61190298389
4126.42817124157
4357.523498935
4516.29223987317
4591.542995787
4576.35372813521
4468.50334896068
4270.48369677349
3989.1265621502102
3634.91175998074
3221.04879287595
2762.43791379957
2274.6168995307403
1772.7915702408402
1271.0289555414104
781.6619995444213
314.9224259215203
-121.20820290124172
-520.9603425669306
-880.5987166079977
-1198.1602946098496
-1473.1619765917897
-1706.3236584632998
-1899.3358713774596
-2054.67784486046
-2175.4723449202497
-2265.35676706903
-2328.3521881676897
-2368.71681440194
-2390.77655225644
-2398.7334387073497
-2396.46110969261
-2387.30439719505
-2373.90564967505
-2358.08076052361
-2340.76241257022
-2322.01821796963
-2301.14015171125
-2276.7930826798797
-2247.20568656251
-2210.3835472421797
-2164.32222608716
-2107.20141925804
-2037.5477754638098
-1954.3575551284398
-1857.1704397022497
-1746.0874872417196
-1621.7335037995397
-1485.1732813001797
-1337.7952810370998
-1181.1752222287098
-1016.9305124269197
-846.5763313880886
-671.3935369386777
-492.3162299771407
-309.8440072591177
-123.98276885053072
65.78096745618019
260.4670224034683
461.5474622948253
670.8512879468623
890.4257862882934
1122.3506503796602
1368.5038980068402
1630.2848465945403
1908.3068813806103
2202.08132776806
2509.72146411142
2827.70038928037
3150.69757369321
3471.56463161877
3781.43107878745
4069.9606409163903
4325.76107114234
4536.94103468158
4691.79014102566
4779.53452245617
4791.10169455741
4719.8223803890105
4562.0012336195305
4317.29989521681
3988.89514308773
3583.40236312068
3110.58499900178
2582.8916635349
2014.8660705968903
1422.4656980956404
822.3118376809953
230.8919032237423
-336.2298565208197
-865.0992382639347
-1343.9177852450298
-1763.5058914149397
-2117.7078672950797
-2403.6448423081897
-2621.71180495822
-2775.30513934675
-2870.3341362493497
-2914.5960179986
-2917.11362677184
-2887.54509078927
-2835.7128054869
-2771.1680052820398
-2702.68737188789
-2637.74644194251
-2582.10781678565
-2539.59941069472
-2512.0765971063597
-2499.53752662656
-2500.35979631493
-2511.62665650863
-2529.50940400249
-2549.66955880418
-2567.64537018205
-2579.1954015196898
-2580.58172899505
-2568.78170931788
-2541.62185309962
-2497.8316585252
-2437.01974434377
-2359.5800126947497
-2266.5413851204
-2159.37963934996
-2039.8124777242997
-1909.5988892031896
-1770.3616748086997
-1623.4454384802098
-1469.8118709278397
-1309.9678457239997
-1143.9239934840398
-971.1850931894187
-790.7725309060877
-601.2767672706947
-400.9399819551177
-187.7753562658817
40.26726601243169
285.0862473497033
548.1731236182223
830.3347976874683
1131.4095707544902
1449.9931403124203
1783.1974860592104
2126.4743135101403
2473.53539039938
2816.39690147289
3145.5713015425
3450.42454508844
3719.70046511908
3942.1880044027603
4107.4805424001
4206.75719229852
4233.5044666146305
4184.09530631079
4058.15519882277
3858.66873209736
3591.8095901094302
3266.51223530693
2893.83751484074
2486.2069447539
2056.59051930054
1617.7318509327804
1181.4813340353003
758.2867383926744
356.8655054198153
-15.944350411864914
-355.1822048641277
-657.6537417672326
-921.7557361600267
-1147.2752929710598
-1335.1905341601996
-1487.4852473125397
-1606.9755394741396
-1697.1369681399296
-1761.9188992458896
-1805.5380016244696
-1832.2525419695096
-1846.1301385424297
-1850.8291181295697
-1849.4156777234198
-1844.2373726630497
-1836.8693970768697
-1828.1444591106197
-1818.2685516059098
-1807.0108543654596
-1793.9409446471398
-1778.6793518550596
-1761.1282453151098
-1741.6516754502697
-1721.1714896919198
-1701.1273290146696
-1683.2393232955296
-1669.0619421474796
-1659.4189433362596
-1653.8729701668797
-1650.3648102369698
-1645.1192824042796
-1632.8851165154497
-1607.4861733349796
-1562.5454695015596
-1492.2356422428597
-1391.9844822195298
-1259.0946743846896
-1093.1606006091097
-896.0618690421747
-671.4298755555807
-423.80409876261473
-157.8264752494637
122.33084554968329
413.2704966274893
712.4269646882123
1017.9103883605403
1328.1885767581603
1641.6726401804603
1956.2756754401003
2269.0103531497903
2575.68410462585
2870.73953248234
3147.2746028423303
3397.26307770405
3611.9753423599
3782.5706877068
3900.79929473739
3959.72674339663
3954.3879494215003
3882.29212369511
3743.72509003111
3541.82121470339
3282.40210195542
2973.60342336269
2625.3340369051302
2248.6296826420403
1854.9723468270904
1455.6429005060902
1061.1603852162702
680.8413123616093
322.4921401239423
-7.767970761498412
-305.5688437434947
-568.2603720878877
-794.8235888800067
-985.7456293897267
-1142.8648854505698
-1269.1783156161298
-1368.6034762479096
-1445.6990699781898
-1505.3574503914297
-1552.4861598393597
-1591.6966250907496
-1627.0201075511698
-1661.6737137951798
-1697.8971384369797
-1736.8709666244797
-1778.7164849770197
-1822.5709008063698
-1866.7288183863297
-1908.8373409334897
-1946.1289406523797
-1975.6755517984197
-1994.6462701143198
-2000.5474007336697
-1991.4232599557497
-1966.0019417092697
-1923.7768761555196
-1865.0199821026797
-1790.7274146845098
-1702.5030040336796
-1602.3865910485197
-1492.6392531837696
-1375.5051723894996
-1252.9732156606797
-1126.5587076427596
-997.1222510728597
-864.7386110692026
-728.6247366100887
-587.1347280300557
-437.8307355910457
-277.6390351552007
-103.09762260622871
89.30512747688678
302.7111278847193
539.4155618343533
800.3721953596963
1084.7382562288603
1389.5223872265603
1709.3937583694503
2036.7036819478503
2361.76013985925
2673.35769602108
2959.49995069941
3208.2109638523802
3408.34683902319
3550.34435036205
3626.8528697484003
3633.21265419372
3567.75211703108
3431.86256473954
3229.82299987733
2968.40831894829
2656.3589002786803
2303.7864958907203
1921.5725442241203
1520.8022346639802
1112.2584455139104
705.9767424965083
310.8680643354383
-65.55779381467572
-417.3372180742827
-740.0694973743967
-1030.8338502115398
-1288.0416249720197
-1511.2574208759897
-1701.0171123249197
-1858.6596973683897
-1986.1790141239696
-2086.09466118435
-2161.33567900557
-2215.12475766867
-2250.85137742702
-2271.93145528463
-2281.66023600658
-2283.06734562161
-2278.7815720284198
-2270.91374836259
-2260.96851810009
-2249.79611148296
-2237.5922464317
-2223.94828807217
-2207.94581653747
-2188.28317152133
-2163.42065432587
-2131.73434029483
-2091.6688281481897
-2041.8756476220697
-1981.3232606869697
-1909.3692730547798
-1825.7924122769298
-1730.7879305890497
-1624.9324631498198
-1509.1230796341697
-1384.4945442257797
-1252.3203881758898
-1113.9053717075496
-970.4780928875307
-823.0914541449147
-672.5343586882577
-519.2547023085897
-363.2959341234257
-204.2542458233197
-41.26624843678601
126.96254377232928
302.0791002914813
485.9478416607323
680.4588165369473
887.2861006077213
1107.6091277054104
1341.8142664407603
1589.2024615663404
1847.7397268545503
2113.88949706973
2382.55482983585
2647.14490406832
2899.77424873185
3131.60052589417
3333.29711966512
3495.6377919894203
3610.1487542108503
3669.76583872044
3669.42542439832
3606.52021069216
3481.16536534232
3296.2438915992702
3057.22768852926
2771.79887667846
2449.31915762136
2100.20790737725
1735.2928483155304
1365.1933553593803
999.7856282047293
647.7819903530653
316.4378800241153
11.384316557245318
-263.4268010743797
-505.6832743807827
-714.6025362078817
-890.7761556818247
-1035.9847450531797
-1152.9791891623597
-1245.2182525583896
-1316.5823811503597
-1371.1177866300397
-1412.8469609191197
-1445.6142676182396
-1472.8941737752598
-1497.5457619431397
-1521.6052069434497
-1546.2266110684197
-1571.7785251974196
-1598.0101068018596
-1624.2060570214596
-1649.3022392036096
-1671.9642219982798
-1690.6381293041097
-1703.5968449749496
-1709.0197741415698
-1705.1263163077397
-1690.3384390454296
-1663.4266291239396
-1623.6093577240697
-1570.5984950892696
-1504.5945565205197
-1426.2397095639096
-1336.5380221053597
-1236.7536242292597
-1128.2985162986597
-1012.6217954374197
-891.1100689921977
-765.0039092396497
-635.3286180807007
-502.8343322738387
-367.94413755705773
-230.7150834032717
-90.81919115645351
52.44901351362169
200.1323385818913
353.5369734642313
514.1315468354013
683.4255892935392
862.8259236803033
1053.4659032939303
1256.0058759756903
1470.4114875403002
1695.7280904165402
1929.8784750896002
2169.5127824402
2409.93692951522
2645.1431099432803
2867.96225265671
3070.34911294235
3243.79414060826
3379.83775739293
3470.64794449841
3509.61154602778
3491.88021981389
3414.80582735667
3278.20756657391
3084.43623942368
2838.22791200359
2546.36222404399
2217.16397424258
1859.9116833117002
1484.2313634206803
1099.5459131498303
714.6269730996863
337.2728693269173
-25.881640320079512
-369.4359605707857
-689.2038867750897
-982.1410158691267
-1246.2528734291297
-1480.5065502580096
-1684.7561529944396
-1859.6780730954697
-2006.6992333579897
-2127.8983362374697
-2225.86851481879
-2303.54136597426
-2363.9807404182598
-2410.16176242732
-2444.75745026677
-2469.95842702746
-2487.34855453698
-2497.85235068192
-2501.76170983124
-2498.84170619636
-2488.50666155298
-2470.04653260833
-2442.87283254455
-2406.74734628332
-2361.95652230209
-2309.39700306663
-2250.54205803886
-2187.27131000721
-2121.5811554873
-2055.24281689713
-1989.4988591148997
-1924.8672232056197
-1861.0811143567098
-1797.1622732253297
-1731.5949864095996
-1662.5366991299998
-1588.0147624138897
-1506.1074743572296
-1415.1111311856896
-1313.6640983764896
-1200.8015423481197
-1075.9407498286596
-938.8114550211927
-789.3486002102157
-627.5668611907207
-453.4421956370747
-266.8303191203467
-67.44499690758441
145.0959490962923
371.1589444058863
610.9233596179353
864.1638560701304
1130.0096058932404
1406.7087336218904
1691.4265569932004
1980.1060354721103
2267.41772579687
2546.82180333312
2810.75636971151
3050.9557929092703
3258.88964327145
3426.29536249936
3545.75870178487
3611.28158285684
3618.77274791095
3566.4039067304902
3454.79043883459
3286.97655560952
3068.22775800393
2805.6580350529903
2507.74014449153
2183.7551511246
1843.2336785151604
1495.4368093415203
1148.9198335244002
811.2093519958803
488.6035978242553
186.0853806140263
-92.67596437165491
-345.2620423868387
-570.4097098876427
-767.9032411411737
-938.4640645099397
-1083.6349735445797
-1205.6479359954396
-1307.2671787513398
-1391.6074103480098
-1461.9321721418196
-1521.4404131481597
-1573.0549034183898
-1619.2303672367098
-1661.7982650606898
-1701.8626159439598
-1739.7587700924996
-1775.0796835293097
-1806.7633810502598
-1833.2300650138097
-1852.5568092499198
-1862.6728269778796
-1861.5521637227398
-1847.3837497595298
-1818.7087133361997
-1774.5214346629498
-1714.3323087949498
-1638.1918193638096
-1546.6781415467096
-1440.8522405678298
-1322.1859210750197
-1192.4673812707497
-1053.6838769702597
-907.8792733988387
-756.9907077980677
-602.6769222544957
-446.1547505647037
-288.0609595707407
-128.3560346348207
33.71570390819159
199.5990043913803
371.3277406428793
551.3505150546523
742.2829665126253
946.5933664826833
1166.2399909806104
1402.2914629186403
1654.5670813189904
1921.3356215150202
2199.10998845554
2482.56636369167
2764.61584173866
3036.6652056451003
3289.0585780330302
3511.60371029736
3694.09115632474
3826.8232915551403
3901.22959770148
3910.58798641187
3850.76417076546
3720.80322319594
3523.21019536472
3263.83056707269
2951.34186309216
2596.46486401021
2211.057955376
1807.2410096204903
1396.6378658511603
989.7797946748123
595.6857892735773
221.6184816004063
-126.9985686226487
-446.5292409941777
-734.9766519048247
-991.7780146228467
-1217.5748205121697
-1413.9810768056598
-1583.3638830953198
-1728.6404856092297
-1853.0855698226096
-1960.1393163239898
-2053.2138480560398
-2135.50616420805
